timestamp,emg_0,emg_1,emg_2,emg_3,emg_4,emg_5,emg_6,emg_7,marker
1789854559.203964,12149.369999999999,1615.8149999999998,16406.774999999998,22834.71,24596.684999999998,25854.254999999997,26481.914999999997,19846.98,0.0
1789854559.2039757,12159.675,1625.22,16407.0,22837.635,24605.73,25870.68,26482.77,19856.295,0.0
1789854559.2039936,12161.385,1621.26,16399.53,22824.495,24591.6,25869.87,26498.745,19862.55,0.0
1789854559.2040002,12158.145,1617.03,16386.12,22757.129999999997,24558.795,25855.11,26508.51,19861.335,0.0
1789854559.2040071,12164.85,1624.6799999999998,16399.98,22738.545,24553.079999999998,25856.73,26510.805,19867.725,0.0
1789854559.2040129,12156.615,1619.325,16409.114999999998,22771.26,24517.62,25830.989999999998,26507.475,19855.17,0.0
1789854559.2040193,12150.359999999999,1603.98,16378.289999999999,22826.969999999998,24544.305,25840.98,26502.03,19853.64,0.0
1789854559.2040253,12144.33,1607.76,16398.899999999998,22844.16,24555.6,25827.66,26489.43,19843.065,0.0
1789854559.2040315,12135.195,1607.49,16416.045,22867.11,24588.405,25829.684999999998,26481.149999999998,19830.645,0.0
1789854559.2040372,12110.58,1578.375,16387.605,22855.635,24651.045,25863.66,26477.504999999997,19810.71,0.0
1789854559.2040436,12119.22,1595.34,16407.18,22867.649999999998,24650.1,25870.77,26476.2,19812.195,0.0
1789854559.2040496,12139.875,1610.235,16410.195,22859.954999999998,24644.34,25886.16,26492.895,19834.92,0.0
1789854559.2040565,12143.025,1613.52,16412.67,22854.42,24620.985,25864.829999999998,26496.719999999998,19834.695,0.0
1789854559.2040644,12150.494999999999,1618.11,16412.715,22845.555,24613.829999999998,25866.135,26504.37,19843.515,0.0
1789854559.204071,12134.88,1613.2949999999998,16419.735,22859.504999999997,24616.754999999997,25858.53,26488.8,19820.79,0.0
1789854559.2040765,12142.619999999999,1616.6699999999998,16416.135,22843.62,24586.469999999998,25836.164999999997,26496.809999999998,19831.68,0.0
1789854559.2040832,12145.14,1610.28,16399.305,22827.195,24606.36,25872.66,26509.004999999997,19841.535,0.0
1789854559.2040887,12140.234999999999,1600.3799999999999,16387.155,22812.344999999998,24593.985,25861.23,26511.03,19837.125,0.0
1789854559.2040951,12129.21,1591.425,16383.06,22810.68,24579.765,25843.32,26507.475,19822.995,0.0
1789854559.2041008,12129.21,1591.83,16380.63,22803.66,24577.695,25844.445,26509.68,19823.175,0.0
1789854559.2041078,12129.57,1591.245,16381.98,22803.57,24577.695,25843.59,26512.515,19824.3,0.0
1789854559.2041132,12129.885,1594.485,16386.795,22808.835,24580.215,25849.26,26509.14,19822.41,0.0
1789854559.2041197,12142.755,1610.0549999999998,16398.899999999998,22821.03,24588.405,25860.42,26514.855,19835.73,0.0
1789854559.2041252,12147.345,1613.52,16401.375,22810.184999999998,24571.754999999997,25858.934999999998,26524.44,19841.219999999998,0.0
1789854559.2041316,12147.345,1614.06,16404.614999999998,22801.545,24556.995,25849.62,26525.745,19841.399999999998,0.0
1789854559.204137,12139.425,1608.705,16407.809999999998,22831.155,24590.07,25856.1,26519.129999999997,19833.344999999998,0.0
1789854559.2041435,12138.93,1609.7849999999999,16410.51,22841.774999999998,24613.695,25855.605,26514.629999999997,19828.035,0.0
1789854559.204151,12120.615,1590.48,16392.96,22819.094999999998,24596.73,25855.02,26508.195,19809.63,0.0
1789854559.2041576,12120.029999999999,1596.195,16409.43,22835.52,24589.71,25848.315,26507.655,19805.579999999998,0.0
1789854559.2041633,12140.46,1608.9299999999998,16408.26,22821.48,24590.295,25853.399999999998,26518.545,19827.0,0.0
1789854559.2041695,12145.32,1613.745,16406.73,22817.879999999997,24587.145,25856.145,26529.21,19832.579999999998,0.0
1789854559.2041752,12143.295,1608.12,16397.46,22816.665,24587.1,25858.8,26530.11,19830.825,0.0
1789854559.204182,12140.279999999999,1604.745,16397.325,22815.27,24585.975,25850.835,26533.035,19828.71,0.0
1789854559.2041876,12127.545,1594.8,16391.385,22805.37,24572.565,25836.524999999998,26531.414999999997,19815.704999999998,0.0
1789854559.204194,12137.895,1602.0,16391.25,22800.78,24571.485,25838.28,26532.135,19826.01,0.0
1789854559.2041998,12127.904999999999,1593.6299999999999,16385.805,22796.504999999997,24567.795,25835.76,26533.395,19816.38,0.0
1789854559.2042067,12137.13,1607.175,16400.43,22809.105,24576.39,25844.355,26531.46,19822.77,0.0
1789854559.204212,12133.305,1602.0,16395.165,22798.62,24562.079999999998,25839.18,26535.735,19822.23,0.0
1789854559.2042184,12130.335,1601.01,16395.93,22790.969999999998,24572.43,25849.934999999998,26534.43,19817.055,0.0
1789854559.204224,12133.26,1613.2949999999998,16422.03,22785.48,24569.235,25843.23,26530.875,19812.78,0.0
1789854559.2043483,12119.58,1584.81,16381.755,22797.945,24571.934999999998,25840.575,26541.36,19805.805,0.0
1789854559.204362,12128.22,1590.075,16370.414999999999,22803.12,24572.7,25836.344999999998,26541.18,19815.48,0.0
1789854559.2043731,12117.6,1588.995,16387.335,22799.925,24546.105,25823.879999999997,26533.62,19800.63,0.0
1789854559.204379,12131.865,1600.605,16390.755,22787.73,24525.405,25826.445,26534.789999999997,19813.545,0.0
1789854559.204386,12123.135,1583.37,16366.545,22766.445,24544.395,25828.829999999998,26545.77,19812.645,0.0
1789854559.2043917,12100.455,1564.7849999999999,16361.955,22789.17,24596.73,25827.21,26535.735,19787.67,0.0
1789854559.204412,12104.55,1566.8999999999999,16365.644999999999,22798.98,24605.594999999998,25840.305,26536.68,19793.16,0.0
1789854559.2044177,12109.68,1575.0,16373.295,22805.864999999998,24577.829999999998,25830.719999999998,26534.295,19794.96,0.0
1789854559.2076712,12118.185,1583.415,16377.345,22789.215,24568.335,25824.735,26538.885,19800.135,0.0
1789854559.2076845,12115.529999999999,1584.45,16379.595,22787.01,24555.195,25818.975,26537.76,19794.69,0.0
1789854559.212078,12103.56,1570.6799999999998,16364.654999999999,22776.66,24545.295,25815.96,26540.55,19785.555,0.0
1789854559.2120976,12107.52,1574.01,16367.445,22779.945,24558.12,25826.895,26541.315,19790.37,0.0
1789854559.215639,12100.41,1566.27,16364.16,22774.274999999998,24542.64,25819.425,26543.7,19783.26,0.0
1789854559.2156594,12113.55,1579.77,16370.955,22779.855,24542.055,25820.864999999998,26544.645,19793.295,0.0
1789854559.2197323,12106.935,1570.095,16362.72,22787.684999999998,24553.665,25818.885,26546.715,19789.155,0.0
1789854559.219746,12095.369999999999,1553.895,16340.535,22758.795,24552.36,25820.684999999998,26555.445,19780.695,0.0
1789854559.2233725,12109.23,1573.83,16361.234999999999,22744.215,24560.73,25831.26,26558.684999999998,19790.235,0.0
1789854559.2233849,12092.984999999999,1562.5349999999999,16363.574999999999,22761.585,24535.844999999998,25804.44,26547.434999999998,19770.75,0.0
1789854559.3245866,12091.23,1564.3799999999999,16367.984999999999,22791.69,24537.555,25801.605,26538.344999999998,19764.585,0.0
1789854559.3246078,12103.65,1579.23,16378.244999999999,22790.925,24538.32,25805.475,26541.0,19776.96,0.0
1789854559.3246315,12090.33,1562.5349999999999,16362.81,22770.945,24540.84,25808.76,26543.295,19767.015,0.0
1789854559.324641,12091.095,1559.4299999999998,16359.66,22769.774999999998,24539.085,25803.585,26543.204999999998,19769.625,0.0
1789854559.324652,12078.359999999999,1545.7949999999998,16342.199999999999,22751.91,24529.41,25795.26,26545.14,19757.7,0.0
1789854559.32466,12079.26,1549.62,16346.699999999999,22751.01,24519.105,25792.605,26541.989999999998,19756.035,0.0
1789854559.3246698,12091.635,1563.345,16361.324999999999,22765.364999999998,24528.42,25801.695,26545.094999999998,19766.969999999998,0.0
1789854559.3246777,12091.23,1562.3999999999999,16356.914999999999,22762.125,24522.57,25794.225,26550.045,19766.34,0.0
1789854559.3246872,12096.449999999999,1584.135,16398.36,22815.809999999998,24568.02,25818.254999999997,26537.76,19761.84,0.0
1789854559.3247116,12106.035,1576.08,16365.24,22763.204999999998,24543.18,25813.754999999997,26564.805,19783.125,0.0
1789854559.3247228,12091.77,1555.245,16338.734999999999,22741.02,24537.015,25806.914999999997,26565.524999999998,19774.71,0.0
1789854559.3247306,12070.035,1535.76,16326.045,22729.004999999997,24519.105,25788.465,26555.535,19752.795,0.0
1789854559.3247404,12074.49,1543.1399999999999,16335.675,22735.485,24518.295,25794.045,26552.385,19753.785,0.0
1789854559.324748,12069.539999999999,1539.36,16333.244999999999,22730.625,24509.79,25790.489999999998,26556.164999999997,19747.17,0.0
1789854559.3247576,12074.445,1548.45,16343.82,22742.55,24513.57,25792.469999999998,26552.879999999997,19747.305,0.0
1789854559.3247652,12085.425,1557.405,16348.59,22742.145,24512.985,25798.41,26561.61,19761.12,0.0
1789854559.3247745,12077.324999999999,1546.02,16333.244999999999,22714.02,24505.875,25794.09,26568.405,19756.395,0.0
1789854559.324782,12085.83,1556.28,16343.324999999999,22721.895,24522.03,25794.629999999997,26565.075,19761.885,0.0
1789854559.3247917,12084.21,1554.615,16343.279999999999,22735.754999999997,24540.434999999998,25799.579999999998,26565.75,19757.745,0.0
1789854559.3247993,12061.619999999999,1530.7649999999999,16326.359999999999,22744.8,24530.579999999998,25779.285,26560.215,19738.17,0.0
1789854559.3248086,12063.42,1539.495,16339.904999999999,22752.945,24522.704999999998,25780.545,26552.295,19733.13,0.0
1789854559.3248165,12083.31,1562.58,16360.38,22755.105,24501.87,25790.399999999998,26558.46,19747.934999999998,0.0
1789854559.3248255,12075.39,1557.315,16367.085,22753.395,24512.625,25795.844999999998,26564.129999999997,19742.715,0.0
1789854559.324833,12061.035,1540.845,16354.935,22718.835,24512.85,25773.66,26562.42,19730.52,0.0
1789854559.324842,12061.71,1525.05,16304.22,22736.835,24522.704999999998,25780.454999999998,26563.184999999998,19733.579999999998,0.0
1789854559.3248496,12072.06,1538.955,16321.005,22734.45,24525.585,25793.325,26566.515,19743.75,0.0
1789854559.324859,12073.635,1539.945,16324.515,22723.379999999997,24506.82,25790.85,26576.37,19749.51,0.0
1789854559.3248663,12075.525,1549.845,16345.574999999999,22750.92,24489.54,25771.094999999998,26570.879999999997,19745.1,0.0
1789854559.3248756,12078.945,1555.56,16352.369999999999,22759.469999999998,24517.485,25788.645,26568.0,19743.255,0.0
1789854559.324883,12068.685,1539.315,16334.279999999999,22755.375,24542.37,25794.719999999998,26570.655,19736.684999999998,0.0
1789854559.3248923,12059.73,1530.855,16324.154999999999,22728.51,24524.415,25779.51,26575.11,19729.934999999998,0.0
1789854559.3248997,12069.72,1540.3049999999998,16329.96,22696.875,24495.254999999997,25777.035,26583.66,19738.98,0.0
1789854559.3249087,12074.58,1534.365,16305.66,22679.864999999998,24493.274999999998,25796.024999999998,26594.37,19747.395,0.0
1789854559.3249164,12080.835,1545.885,16322.265,22697.594999999998,24503.219999999998,25791.66,26586.899999999998,19748.204999999998,0.0
1789854559.3249257,12060.9,1539.6299999999999,16340.849999999999,22737.42,24503.805,25770.42,26575.065,19725.12,0.0
1789854559.324933,12052.98,1531.575,16334.775,22772.475,24529.635,25778.295,26569.305,19717.02,0.0
1789854559.3249424,12067.244999999999,1553.04,16362.63,22792.32,24562.17,25790.895,26557.155,19722.87,0.0
1789854559.3249495,12077.414999999999,1553.985,16352.055,22749.21,24514.785,25785.045,26584.649999999998,19740.555,0.0
1789854559.3249633,12069.494999999999,1545.48,16345.98,22752.675,24518.024999999998,25782.254999999997,26586.045,19733.13,0.0
1789854559.3249707,12054.06,1523.79,16318.619999999999,22730.309999999998,24529.454999999998,25780.23,26580.42,19719.945,0.0
1789854559.3249807,12065.31,1535.76,16325.055,22725.629999999997,24510.78,25782.885,26586.045,19730.79,0.0
1789854559.3249884,12058.02,1531.3049999999998,16323.21,22716.045,24491.879999999997,25768.98,26588.204999999998,19723.545,0.0
1789854559.3249977,12064.365,1539.6299999999999,16330.5,22718.43,24494.76,25774.649999999998,26586.765,19727.1,0.0
1789854559.3250048,12057.885,1532.79,16325.324999999999,22719.87,24493.454999999998,25763.76,26587.664999999997,19718.82,0.0
1789854559.3250144,12062.97,1535.5349999999999,16329.555,22735.26,24511.32,25776.675,26588.835,19725.255,0.0
1789854559.3250217,12059.324999999999,1530.72,16326.18,22728.329999999998,24507.765,25777.26,26589.059999999998,19721.07,0.0
1789854559.3255925,12047.895,1518.84,16313.175,22707.18,24481.844999999998,25748.82,26585.055,19708.695,0.0
1789854559.3256292,12052.125,1522.8899999999999,16315.064999999999,22700.655,24497.325,25772.489999999998,26590.32,19715.265,0.0
1789854559.3256435,12055.185,1521.27,16308.18,22670.954999999998,24475.32,25765.335,26597.43,19720.44,0.0
1789854559.3256495,12039.885,1509.12,16300.529999999999,22678.605,24450.93,25741.844999999998,26585.504999999997,19703.52,0.0
1789854559.3282297,12047.175,1520.1,16312.32,22715.504999999997,24471.899999999998,25751.16,26584.785,19709.91,0.0
1789854559.3282435,12040.425,1520.595,16315.785,22704.57,24491.07,25748.864999999998,26572.094999999998,19696.41,0.0
1789854559.332559,12037.545,1517.355,16319.609999999999,22716.899999999998,24489.135,25755.12,26578.215,19695.735,0.0
1789854559.3325772,12043.26,1522.485,16320.779999999999,22722.12,24473.295,25765.02,26587.53,19700.01,0.0
1789854559.3363492,12038.76,1519.605,16323.974999999999,22721.715,24469.695,25752.105,26593.11,19694.655,0.0
1789854559.3363678,12045.645,1518.21,16308.045,22709.879999999997,24506.37,25770.645,26599.59,19705.41,0.0
1789854559.43752,12027.015,1501.02,16294.904999999999,22703.94,24510.105,25764.795,26593.335,19687.635,0.0
1789854559.4375536,12044.835,1517.085,16304.445,22703.355,24499.079999999998,25761.69,26595.045,19702.485,0.0
1789854559.4375882,12046.545,1517.5349999999999,16300.664999999999,22690.71,24486.704999999998,25758.36,26605.485,19706.13,0.0
1789854559.4376037,12031.785,1505.97,16294.41,22686.704999999998,24475.905,25744.184999999998,26597.295,19688.579999999998,0.0
1789854559.4377155,12040.289999999999,1515.6,16304.894999999999,22696.335,24485.67,25757.684999999998,26599.995,19696.454999999998,0.0
1789854559.4377303,12039.84,1514.115,16304.58,22693.23,24481.62,25757.64,26604.045,19696.995,0.0
1789854559.437744,12024.404999999999,1500.03,16290.494999999999,22682.114999999998,24458.579999999998,25736.309999999998,26602.335,19681.92,0.0
1789854559.437755,12022.605,1498.185,16292.205,22673.565,24455.16,25734.195,26598.285,19678.274999999998,0.0
1789854559.4377673,12029.039999999999,1503.36,16294.68,22684.41,24451.469999999998,25732.71,26598.059999999998,19685.385,0.0
1789854559.4377863,12022.56,1497.78,16292.205,22680.495,24434.82,25721.504999999997,26601.075,19677.69,0.0
1789854559.4378035,12025.574999999999,1499.8049999999998,16287.66,22673.925,24445.665,25735.995,26601.164999999997,19678.995,0.0
1789854559.437814,12030.885,1508.2649999999999,16299.765,22699.44,24467.985,25741.26,26598.555,19683.765,0.0
1789854559.437827,12024.449999999999,1501.3799999999999,16295.265,22700.879999999997,24480.36,25739.73,26598.465,19678.815,0.0
1789854559.437844,12010.41,1481.85,16268.535,22653.27,24465.285,25738.11,26600.535,19667.385,0.0
1789854559.4378564,12010.994999999999,1481.49,16265.385,22642.155,24446.655,25721.684999999998,26603.414999999997,19668.105,0.0
1789854559.437866,12012.21,1483.74,16269.029999999999,22648.95,24436.934999999998,25720.92,26603.235,19666.079999999998,0.0
1789854559.437878,12013.064999999999,1485.315,16270.335,22649.535,24435.945,25725.329999999998,26605.844999999998,19664.37,0.0
1789854559.4378877,12017.609999999999,1493.28,16284.15,22673.295,24458.579999999998,25739.864999999998,26603.414999999997,19666.53,0.0
1789854559.437899,12013.154999999999,1483.425,16269.795,22660.379999999997,24460.829999999998,25735.905,26604.989999999998,19666.575,0.0
1789854559.4379091,12006.585,1480.05,16270.289999999999,22660.155,24439.635,25717.41,26605.53,19661.85,0.0
1789854559.4379213,11993.31,1466.73,16257.195,22644.495,24431.76,25713.719999999998,26601.704999999998,19648.35,0.0
1789854559.4379697,12015.855,1489.86,16271.595,22635.809999999998,24439.094999999998,25726.905,26608.635,19667.385,0.0
1789854559.4379823,12016.98,1497.51,16275.644999999999,22628.385,24428.745,25724.204999999998,26603.684999999998,19662.66,0.0
1789854559.4379923,11998.845,1489.0049999999999,16281.314999999999,22660.065,24412.68,25706.114999999998,26585.82,19638.585,0.0
1789854559.4380035,11992.949999999999,1476.855,16281.585,22690.305,24449.94,25712.414999999997,26595.945,19642.23,0.0
1789854559.4380252,11992.05,1470.375,16272.0,22634.864999999998,24419.25,25706.745,26604.765,19642.545,0.0
1789854559.438038,11998.89,1475.0549999999998,16264.755,22629.555,24413.175,25715.024999999998,26608.274999999998,19650.69,0.0
1789854559.438048,11986.785,1460.4299999999998,16242.705,22645.035,24435.809999999998,25713.0,26608.32,19639.844999999998,0.0
1789854559.4380598,11994.84,1466.01,16248.33,22657.86,24461.235,25719.704999999998,26604.0,19644.344999999998,0.0
1789854559.4380696,11988.99,1463.76,16250.67,22654.934999999998,24433.02,25695.18,26602.739999999998,19636.469999999998,0.0
1789854559.4380813,11980.395,1453.23,16244.73,22645.26,24424.11,25702.695,26605.395,19631.88,0.0
1789854559.4380908,11996.369999999999,1471.185,16262.82,22664.16,24438.059999999998,25715.43,26608.41,19644.975,0.0
1789854559.438102,12000.555,1476.6299999999999,16269.074999999999,22664.52,24434.19,25714.754999999997,26614.485,19647.945,0.0
1789854559.4381115,11985.3,1456.5149999999999,16241.31,22626.225,24406.245,25702.155,26617.184999999998,19635.57,0.0
1789854559.4381227,11979.72,1457.46,16248.42,22639.635,24423.704999999998,25702.2,26606.925,19624.68,0.0
1789854559.4381328,11995.38,1477.215,16270.244999999999,22663.575,24447.645,25708.41,26605.844999999998,19635.434999999998,0.0
1789854559.4381444,11994.119999999999,1467.1799999999998,16252.244999999999,22645.71,24445.395,25712.145,26620.829999999998,19641.645,0.0
1789854559.4381545,11983.68,1461.06,16247.654999999999,22628.07,24411.825,25690.86,26617.635,19629.45,0.0
1789854559.4381657,11990.52,1472.6699999999998,16263.63,22637.43,24400.079999999998,25683.164999999997,26610.434999999998,19629.405,0.0
1789854559.4381752,11993.085,1471.095,16257.06,22647.105,24424.785,25697.295,26619.614999999998,19634.985,0.0
1789854559.4381866,11974.275,1449.405,16237.349999999999,22633.02,24421.86,25694.19,26622.539999999997,19620.809999999998,0.0
1789854559.4382057,11974.68,1452.51,16242.93,22636.44,24428.79,25703.28,26620.155,19619.91,0.0
1789854559.438222,11996.145,1473.345,16258.05,22648.905,24441.254999999997,25722.855,26628.164999999997,19638.63,0.0
1789854559.438232,11997.99,1477.485,16264.035,22650.66,24434.774999999998,25713.899999999998,26630.55,19638.63,0.0
1789854559.4382436,11996.1,1479.51,16270.289999999999,22656.96,24437.204999999998,25712.055,26626.59,19632.78,0.0
1789854559.4382536,11995.515,1471.635,16255.89,22639.77,24428.16,25708.77,26632.215,19634.355,0.0
1789854559.4382656,11987.234999999999,1459.35,16240.769999999999,22626.405,24408.495,25700.76,26637.344999999998,19629.0,0.0
1789854559.438276,11980.08,1454.895,16235.64,22611.285,24395.265,25691.76,26634.6,19619.91,0.0
1789854559.4382875,11990.43,1462.185,16235.46,22591.035,24400.485,25705.664999999997,26642.16,19632.195,0.0
1789854559.4382973,11983.455,1464.615,16254.18,22627.035,24413.985,25703.235,26633.745,19620.135,0.0
1789854559.4396925,11970.404999999999,1451.745,16244.82,22632.39,24406.11,25679.655,26630.82,19606.86,0.0
1789854559.4397328,11973.33,1449.7649999999999,16232.535,22622.399999999998,24412.995,25688.7,26633.204999999998,19611.899999999998,0.0
1789854559.4434776,11984.445,1466.5049999999999,16253.73,22644.405,24428.07,25702.785,26636.219999999998,19622.295,0.0
1789854559.4435048,11987.505,1469.2949999999998,16243.74,22617.629999999997,24403.274999999998,25686.36,26630.37,19620.899999999998,0.0
1789854559.4485698,11982.689999999999,1463.85,16243.92,22606.245,24386.805,25671.914999999997,26642.565,19617.614999999998,0.0
1789854559.448596,11988.72,1466.0549999999998,16243.199999999999,22623.66,24406.649999999998,25693.515,26649.45,19624.41,0.0
1789854559.4513812,11979.359999999999,1449.36,16219.26,22604.895,24394.68,25691.94,26658.0,19620.855,0.0
1789854559.4514046,11983.23,1458.0449999999998,16234.56,22621.004999999997,24406.379999999997,25704.855,26652.285,19620.405,0.0
1789854559.5468,11979.9,1457.145,16240.41,22619.024999999998,24383.745,25686.09,26653.77,19614.239999999998,0.0
1789854559.5468369,11973.96,1457.0549999999998,16246.035,22622.085,24411.375,25694.28,26643.375,19603.665,0.0
1789854559.546872,11988.81,1472.445,16258.994999999999,22627.305,24427.934999999998,25691.039999999997,26649.45,19617.344999999998,0.0
1789854559.546886,11980.484999999999,1453.6799999999998,16228.845,22606.695,24412.05,25694.145,26658.719999999998,19613.565,0.0
1789854559.546903,11983.59,1465.695,16252.38,22638.42,24427.62,25705.71,26650.26,19611.945,0.0
1789854559.546916,11970.0,1447.695,16235.775,22624.11,24413.76,25689.825,26655.21,19603.755,0.0
1789854559.5469368,11968.83,1443.645,16221.33,22635.629999999997,24417.495,25687.664999999997,26657.19,19602.18,0.0
1789854559.54695,11978.46,1458.27,16235.955,22625.145,24403.41,25685.774999999998,26661.285,19607.085,0.0
1789854559.5469663,11988.404999999999,1467.945,16245.585,22617.135,24410.52,25698.914999999997,26667.675,19617.93,0.0
1789854559.5469797,11975.58,1456.9199999999998,16243.605,22600.44,24396.21,25681.545,26664.21,19604.34,0.0
1789854559.546996,11976.66,1455.435,16232.085,22618.485,24415.379999999997,25690.635,26662.094999999998,19605.825,0.0
1789854559.5470097,11977.605,1456.3799999999999,16234.785,22609.89,24397.605,25681.23,26664.75,19606.86,0.0
1789854559.5470257,11967.119999999999,1446.345,16228.619999999999,22599.36,24382.305,25673.985,26660.789999999997,19595.88,0.0
1789854559.5470393,11975.715,1455.6599999999999,16239.33,22607.864999999998,24400.44,25684.829999999998,26661.555,19604.25,0.0
1789854559.5470548,11979.359999999999,1460.655,16251.435,22618.485,24414.254999999997,25695.135,26667.0,19606.95,0.0
1789854559.547068,11974.455,1456.155,16237.17,22642.2,24424.425,25697.52,26661.195,19599.885,0.0
1789854559.5470831,11973.96,1450.71,16229.295,22629.015,24409.485,25686.405,26669.204999999998,19601.91,0.0
1789854559.5470967,11960.46,1443.78,16229.88,22622.219999999998,24407.504999999997,25683.164999999997,26660.655,19583.954999999998,0.0
1789854559.5471127,11976.029999999999,1459.7549999999999,16243.199999999999,22612.184999999998,24382.215,25677.27,26671.32,19599.84,0.0
1789854559.547126,11974.41,1441.485,16204.185,22551.39,24343.559999999998,25677.0,26692.02,19608.12,0.0
1789854559.5471408,11989.035,1455.57,16212.285,22545.315,24341.265,25691.985,26698.23,19621.844999999998,0.0
1789854559.5471544,11975.895,1447.2,16213.635,22577.175,24378.03,25683.164999999997,26690.625,19608.975,0.0
1789854559.5471694,11945.609999999999,1425.645,16211.744999999999,22621.23,24437.969999999998,25666.695,26669.43,19576.305,0.0
1789854559.5471823,11950.605,1434.4199999999998,16226.91,22634.145,24419.969999999998,25670.655,26669.16,19576.53,0.0
1789854559.5472045,11966.13,1451.8799999999999,16242.255,22638.465,24420.735,25683.57,26673.75,19588.86,0.0
1789854559.5472176,11961.449999999999,1444.635,16231.365,22621.454999999998,24415.379999999997,25679.925,26675.73,19586.07,0.0
1789854559.547233,11961.63,1446.57,16234.83,22627.26,24405.84,25679.835,26680.094999999998,19586.52,0.0
1789854559.5472465,11966.49,1450.0349999999999,16235.505,22627.485,24403.274999999998,25683.66,26684.864999999998,19590.614999999998,0.0
1789854559.5472615,11976.435,1458.585,16234.695,22600.035,24398.325,25689.285,26694.809999999998,19598.219999999998,0.0
1789854559.5472744,11974.68,1457.5049999999999,16233.255,22583.52,24377.219999999998,25674.21,26696.43,19594.26,0.0
1789854559.5472891,11978.73,1459.3049999999998,16235.73,22598.684999999998,24400.305,25690.815,26698.41,19601.46,0.0
1789854559.5473025,11971.755,1453.23,16232.085,22611.015,24424.02,25692.164999999997,26694.629999999997,19593.855,0.0
1789854559.5473173,11970.765,1457.145,16243.154999999999,22619.16,24417.405,25687.53,26696.61,19589.76,0.0
1789854559.5473309,11961.9,1446.2549999999999,16231.185,22603.86,24404.489999999998,25679.52,26698.41,19581.975,0.0
1789854559.5473459,11973.555,1458.0,16240.769999999999,22619.61,24400.98,25680.105,26698.32,19591.155,0.0
1789854559.547359,11963.25,1446.705,16228.484999999999,22597.829999999998,24371.594999999998,25663.68,26700.795,19583.82,0.0
1789854559.5473747,11963.654999999999,1446.03,16224.93,22587.93,24375.87,25668.855,26704.98,19587.105,0.0
1789854559.547388,11971.395,1457.46,16241.22,22604.579999999998,24381.765,25673.67,26704.934999999998,19593.36,0.0
1789854559.5474029,11965.635,1455.435,16237.755,22616.504999999997,24386.04,25668.36,26700.885,19583.594999999998,0.0
1789854559.5474155,11971.71,1461.5549999999998,16244.685,22615.11,24406.469999999998,25683.254999999997,26701.469999999998,19588.545,0.0
1789854559.547431,11958.66,1441.395,16225.92,22603.274999999998,24400.079999999998,25674.344999999998,26709.57,19581.434999999998,0.0
1789854559.547444,11952.81,1430.865,16210.26,22595.175,24406.379999999997,25684.02,26709.48,19576.305,0.0
1789854559.5474594,11956.41,1437.975,16221.42,22600.44,24398.145,25672.545,26710.739999999998,19577.16,0.0
1789854559.5474725,11960.189999999999,1447.11,16234.154999999999,22607.415,24395.985,25681.5,26712.495,19576.89,0.0
1789854559.5474875,11981.295,1467.81,16247.699999999999,22614.075,24413.535,25699.995,26717.579999999998,19596.059999999998,0.0
1789854559.5475004,11977.244999999999,1461.465,16241.445,22609.26,24404.175,25690.454999999998,26720.325,19594.53,0.0
1789854559.54893,11974.545,1453.995,16226.64,22592.07,24387.21,25685.46,26721.855,19592.505,0.0
1789854559.5489645,11962.98,1445.985,16226.505,22588.92,24381.719999999998,25677.18,26720.684999999998,19581.975,0.0
1789854559.5524228,11953.125,1432.71,16211.88,22585.274999999998,24386.895,25669.664999999997,26719.559999999998,19571.445,0.0
1789854559.5524566,11960.01,1439.19,16213.994999999999,22588.245,24395.355,25672.545,26723.835,19575.585,0.0
1789854559.5559778,11965.095,1448.145,16225.695,22598.82,24397.29,25683.075,26728.469999999998,19577.88,0.0
1789854559.5560083,11965.185,1445.715,16224.885,22593.96,24398.37,25690.41,26733.375,19579.454999999998,0.0
1789854559.5596929,11974.68,1459.98,16242.66,22605.21,24406.605,25692.704999999998,26732.475,19585.62,0.0
1789854559.5597212,11966.265,1450.665,16235.73,22600.754999999997,24380.594999999998,25670.204999999998,26735.625,19580.219999999998,0.0
1789854559.5636852,11972.52,1453.635,16233.66,22594.995,24374.565,25672.59,26738.01,19587.42,0.0
1789854559.5637171,11971.08,1450.125,16222.68,22568.489999999998,24361.29,25675.379999999997,26740.305,19586.114999999998,0.0
1789854559.6658928,11972.88,1459.215,16236.449999999999,22561.335,24368.805,25677.809999999998,26740.575,19581.255,0.0
1789854559.6659203,11962.484999999999,1447.425,16227.404999999999,22570.155,24371.55,25668.18,26739.135,19569.825,0.0
1789854559.6659462,11954.52,1436.985,16214.265,22594.41,24380.774999999998,25674.434999999998,26737.829999999998,19565.055,0.0
1789854559.6659577,11951.955,1437.5249999999999,16219.98,22605.165,24406.245,25676.055,26736.66,19562.625,0.0
1789854559.6659698,11950.244999999999,1435.4099999999999,16219.305,22610.61,24423.03,25680.87,26734.23,19559.52,0.0
1789854559.66598,11955.33,1440.945,16225.109999999999,22610.295,24414.795,25679.204999999998,26735.309999999998,19563.12,0.0
1789854559.6659915,11974.095,1467.675,16259.039999999999,22629.645,24410.925,25675.739999999998,26738.37,19575.989999999998,0.0
1789854559.6660016,11981.744999999999,1469.205,16247.07,22606.11,24425.594999999998,25704.45,26750.43,19583.73,0.0
1789854559.6660137,11986.65,1471.86,16246.035,22605.12,24407.684999999998,25691.085,26760.105,19589.309999999998,0.0
1789854559.6660235,11972.385,1454.895,16232.445,22610.114999999998,24406.695,25691.895,26755.92,19577.16,0.0
1789854559.6660352,11969.595,1449.315,16223.715,22597.2,24404.129999999997,25692.975,26760.645,19576.215,0.0
1789854559.6660447,11963.564999999999,1446.3,16226.64,22597.829999999998,24392.34,25680.285,26758.89,19569.059999999998,0.0
1789854559.6660569,11953.484999999999,1443.78,16229.205,22599.36,24378.12,25672.86,26749.98,19555.02,0.0
1789854559.666067,11972.295,1454.22,16225.875,22594.094999999998,24383.745,25682.535,26755.515,19575.315,0.0
1789854559.6660783,11968.785,1447.7849999999999,16215.705,22572.27,24406.065,25690.094999999998,26769.825,19577.61,0.0
1789854559.6660888,11956.455,1441.8899999999999,16217.685,22570.695,24405.254999999997,25677.0,26764.425,19563.434999999998,0.0
1789854559.6661003,11963.789999999999,1455.21,16239.96,22590.585,24387.795,25670.52,26761.32,19566.989999999998,0.0
1789854559.6661108,11954.16,1437.3,16216.47,22600.35,24383.925,25669.125,26763.164999999997,19560.735,0.0
1789854559.6661224,11965.859999999999,1456.83,16241.13,22623.165,24390.629999999997,25671.51,26763.57,19566.18,0.0
1789854559.666132,11959.47,1445.5349999999999,16227.404999999999,22588.379999999997,24371.1,25663.41,26767.71,19561.5,0.0
1789854559.666143,11972.97,1461.78,16249.32,22574.385,24359.265,25666.785,26770.094999999998,19573.605,0.0
1789854559.666153,11972.34,1454.8049999999998,16225.56,22583.43,24372.719999999998,25666.379999999997,26773.335,19573.92,0.0
1789854559.666164,11959.064999999999,1440.8999999999999,16209.765,22585.364999999998,24394.635,25668.539999999997,26772.254999999997,19561.32,0.0
1789854559.666174,11962.215,1455.3,16243.92,22622.67,24413.805,25690.725,26763.12,19558.755,0.0
1789854559.6661854,11966.22,1456.74,16244.234999999999,22621.545,24415.829999999998,25694.01,26775.27,19564.2,0.0
1789854559.6661954,11960.01,1447.335,16229.609999999999,22599.135,24399.675,25681.635,26780.309999999998,19558.71,0.0
1789854559.6662068,11971.484999999999,1459.1699999999998,16240.365,22610.385,24412.59,25689.015,26778.42,19566.0,0.0
1789854559.666217,11975.984999999999,1454.76,16223.355,22584.96,24399.045,25685.774999999998,26789.895,19574.82,0.0
1789854559.6662288,11973.105,1461.4199999999998,16238.519999999999,22606.739999999998,24404.129999999997,25691.76,26785.62,19567.755,0.0
1789854559.6662383,11972.699999999999,1461.78,16237.935,22605.66,24401.07,25687.305,26788.274999999998,19566.135,0.0
1789854559.6662498,11966.715,1451.7,16219.484999999999,22582.98,24392.565,25681.86,26792.954999999998,19560.78,0.0
1789854559.6662598,11968.56,1455.21,16225.109999999999,22580.82,24393.78,25682.67,26791.605,19561.274999999998,0.0
1789854559.666271,11977.605,1460.7,16228.935,22589.325,24400.44,25691.355,26797.995,19572.21,0.0
1789854559.666281,11964.285,1450.62,16225.92,22580.73,24392.52,25682.355,26793.945,19558.44,0.0
1789854559.6662924,11975.984999999999,1463.985,16238.07,22577.67,24386.535,25686.18,26798.895,19568.43,0.0
1789854559.6663022,11976.48,1466.415,16237.8,22593.285,24391.17,25689.285,26798.805,19564.649999999998,0.0
1789854559.6663136,11976.345,1476.0449999999998,16257.779999999999,22617.809999999998,24396.885,25682.355,26786.969999999998,19557.945,0.0
1789854559.6663232,11972.25,1463.04,16246.529999999999,22608.855,24399.629999999997,25687.53,26797.454999999998,19560.735,0.0
1789854559.666334,11976.84,1464.705,16240.724999999999,22579.335,24371.73,25678.26,26803.26,19563.165,0.0
1789854559.666344,11951.775,1435.455,16215.029999999999,22538.385,24345.54,25665.57,26811.135,19547.954999999998,0.0
1789854559.6663551,11941.064999999999,1419.705,16189.605,22562.01,24367.364999999998,25667.82,26806.68,19539.18,0.0
1789854559.666365,11942.369999999999,1424.655,16196.265,22579.605,24398.145,25663.815,26796.015,19535.445,0.0
1789854559.6663756,11951.46,1440.945,16218.269999999999,22597.02,24415.739999999998,25671.735,26791.11,19539.09,0.0
1789854559.666386,11943.585,1432.35,16210.125,22577.579999999998,24392.34,25658.37,26794.35,19532.385,0.0
1789854559.666397,11951.46,1438.11,16211.925,22573.53,24386.535,25666.829999999998,26801.01,19541.295,0.0
1789854559.666407,11944.035,1431.7649999999999,16207.109999999999,22569.795,24360.075,25658.055,26806.004999999997,19531.98,0.0
1789854559.6664183,11955.42,1445.76,16214.445,22548.149999999998,24358.05,25663.905,26811.27,19541.43,0.0
1789854559.666428,11976.119999999999,1462.185,16216.605,22527.18,24389.28,25678.844999999998,26820.809999999998,19563.704999999998,0.0
1789854559.668033,11971.755,1463.5349999999999,16232.039999999999,22563.675,24387.03,25684.155,26821.98,19557.27,0.0
1789854559.6680596,11946.734999999999,1436.445,16215.84,22593.645,24380.325,25677.585,26816.805,19536.75,0.0
1789854559.668084,11953.89,1443.465,16219.125,22599.27,24394.004999999997,25676.55,26815.995,19543.005,0.0
1789854559.6680944,11959.695,1450.0349999999999,16220.835,22585.32,24374.79,25666.11,26820.539999999997,19545.434999999998,0.0
1789854559.6712165,11947.455,1438.695,16211.16,22580.37,24368.579999999998,25657.245,26819.28,19533.645,0.0
1789854559.6712327,11941.875,1430.01,16200.449999999999,22570.695,24376.86,25664.489999999998,26818.875,19530.315,0.0
1789854559.6760254,11945.475,1433.655,16204.41,22564.485,24375.735,25668.09,26821.62,19531.665,0.0
1789854559.6760547,11948.984999999999,1439.82,16211.205,22547.43,24369.704999999998,25664.67,26820.629999999997,19533.735,0.0
1789854559.7566848,11947.635,1439.1,16214.984999999999,22556.745,24358.995,25659.675,26821.035,19532.52,0.0
1789854559.7567053,11945.564999999999,1442.34,16224.57,22595.895,24383.745,25667.46,26815.86,19526.579999999998,0.0
1789854559.7567253,11975.805,1467.495,16235.55,22581.945,24376.184999999998,25682.805,26834.76,19554.885,0.0
1789854559.7567325,11970.9,1463.1299999999999,16234.875,22584.555,24374.43,25681.95,26836.649999999998,19549.844999999998,0.0
1789854559.7567408,11952.855,1442.835,16215.48,22582.305,24394.68,25673.129999999997,26834.355,19534.41,0.0
1789854559.756753,11951.01,1444.23,16220.835,22590.135,24396.57,25670.835,26830.53,19531.62,0.0
1789854559.7567613,11966.085,1459.8899999999999,16232.175,22588.515,24395.625,25683.254999999997,26838.18,19547.37,0.0
1789854559.756768,11966.984999999999,1458.675,16227.72,22579.785,24391.035,25680.51,26839.71,19546.605,0.0
1789854559.7567756,11962.17,1455.075,16227.9,22581.405,24375.465,25673.85,26837.19,19538.82,0.0
1789854559.7567823,11953.71,1450.1699999999998,16228.08,22574.879999999997,24352.92,25661.34,26837.055,19529.055,0.0
1789854559.75679,11957.76,1453.455,16228.394999999999,22575.51,24383.204999999998,25691.76,26842.77,19535.13,0.0
1789854559.7567968,11956.32,1453.32,16231.545,22584.78,24390.855,25671.825,26848.71,19531.62,0.0
1789854559.7568083,11978.189999999999,1473.75,16244.82,22592.43,24400.035,25685.235,26858.16,19552.454999999998,0.0
1789854559.7568152,11969.279999999999,1459.485,16226.865,22586.715,24409.71,25692.614999999998,26860.635,19549.125,0.0
1789854559.7568233,11955.375,1449.945,16223.535,22581.315,24393.239999999998,25676.73,26853.57,19532.969999999998,0.0
1789854559.75683,11951.775,1445.355,16215.615,22567.59,24375.195,25670.204999999998,26856.09,19532.385,0.0
1789854559.756838,11961.675,1461.51,16242.435,22570.785,24384.69,25671.735,26852.85,19537.335,0.0
1789854559.7568443,11954.295,1447.47,16218.18,22561.739999999998,24372.45,25661.204999999998,26857.305,19531.934999999998,0.0
1789854559.756852,11954.385,1448.73,16210.845,22571.37,24372.225,25664.309999999998,26859.059999999998,19530.18,0.0
1789854559.7568588,11956.5,1447.3799999999999,16210.26,22563.809999999998,24367.184999999998,25668.405,26864.73,19533.645,0.0
1789854559.7568662,11965.635,1459.7549999999999,16225.109999999999,22569.48,24381.135,25677.0,26865.629999999997,19540.26,0.0
1789854559.756873,11955.285,1450.71,16220.654999999999,22577.445,24383.925,25672.004999999997,26865.135,19530.045,0.0
1789854559.7568803,11962.305,1458.36,16229.654999999999,22582.665,24383.43,25672.635,26867.879999999997,19535.265,0.0
1789854559.7568872,11950.47,1443.195,16217.01,22562.55,24360.434999999998,25653.6,26867.295,19525.725,0.0
1789854559.7568946,11947.365,1435.995,16204.814999999999,22554.765,24366.329999999998,25658.594999999998,26864.82,19522.079999999998,0.0
1789854559.7569013,11945.52,1439.0549999999998,16211.789999999999,22563.585,24379.875,25659.945,26861.219999999998,19517.399999999998,0.0
1789854559.756909,11960.955,1453.23,16218.09,22558.77,24382.17,25678.305,26868.96,19533.105,0.0
1789854559.7569153,11960.46,1455.885,16229.744999999999,22572.135,24377.085,25679.61,26869.32,19530.719999999998,0.0
1789854559.7569232,11944.484999999999,1441.395,16223.625,22581.135,24376.545,25671.69,26870.535,19516.094999999998,0.0
1789854559.7569296,11953.26,1453.1399999999999,16233.435,22592.879999999997,24406.469999999998,25679.835,26861.489999999998,19519.245,0.0
1789854559.7569373,11949.029999999999,1438.245,16207.244999999999,22556.52,24376.32,25674.21,26877.6,19520.505,0.0
1789854559.7569437,11950.56,1439.145,16202.16,22550.67,24370.515,25673.94,26884.305,19524.015,0.0
1789854559.756951,11966.58,1460.07,16222.545,22573.395,24370.11,25673.895,26885.43,19536.255,0.0
1789854559.7569575,11952.81,1449.27,16219.394999999999,22565.43,24370.245,25670.835,26883.765,19521.585,0.0
1789854559.7569647,11955.734999999999,1456.965,16233.885,22563.36,24373.53,25671.51,26885.879999999997,19520.505,0.0
1789854559.7569711,11958.75,1450.665,16209.494999999999,22536.27,24378.03,25672.094999999998,26894.295,19527.84,0.0
1789854559.7569788,11961.045,1454.985,16216.785,22530.825,24370.92,25677.045,26893.934999999998,19528.425,0.0
1789854559.7569854,11966.939999999999,1458.585,16222.275,22542.57,24370.515,25685.235,26896.184999999998,19533.51,0.0
1789854559.7575727,11955.6,1444.2749999999999,16205.849999999999,22539.69,24353.954999999998,25667.19,26899.155,19527.255,0.0
1789854559.757589,11958.255,1457.28,16228.935,22567.68,24374.43,25670.385,26891.73,19524.87,0.0
1789854559.760333,11950.154999999999,1452.87,16229.654999999999,22588.605,24373.26,25660.53,26887.815,19512.585,0.0
1789854559.7603502,11958.93,1456.695,16224.57,22583.79,24402.96,25680.059999999998,26892.899999999998,19522.62,0.0
1789854559.7674663,11959.244999999999,1457.46,16228.08,22592.925,24409.395,25680.87,26893.26,19524.105,0.0
1789854559.7674866,11950.289999999999,1447.74,16221.96,22578.66,24381.989999999998,25660.754999999997,26895.914999999997,19519.245,0.0
1789854559.7675033,11933.955,1431.36,16208.234999999999,22569.93,24379.155,25657.695,26894.655,19501.785,0.0
1789854559.767511,11934.359999999999,1433.205,16211.88,22570.02,24376.14,25653.51,26894.25,19500.12,0.0
1789854559.771001,11940.705,1437.5249999999999,16210.935,22560.21,24380.325,25658.145,26898.614999999998,19507.05,0.0
1789854559.7710197,11953.845,1450.71,16219.439999999999,22566.239999999998,24382.754999999997,25670.879999999997,26899.559999999998,19517.219999999998,0.0
1789854559.775649,11956.814999999999,1454.8049999999998,16225.47,22573.844999999998,24369.39,25665.3,26901.585,19519.11,0.0
1789854559.775666,11952.404999999999,1450.845,16223.175,22571.37,24376.905,25672.545,26902.44,19514.385,0.0
1789854559.8574736,11949.705,1448.46,16220.699999999999,22560.21,24370.785,25670.25,26908.695,19514.16,0.0
1789854559.8575091,11941.92,1438.74,16208.595,22551.795,24371.64,25668.539999999997,26907.12,19504.26,0.0
1789854559.857543,11959.47,1457.28,16223.13,22567.184999999998,24380.82,25670.789999999997,26908.469999999998,19517.85,0.0
1789854559.857556,11953.439999999999,1451.97,16221.33,22565.43,24377.219999999998,25670.7,26915.985,19517.219999999998,0.0
1789854559.8575716,11951.01,1451.385,16224.75,22568.895,24385.59,25680.015,26918.055,19513.485,0.0
1789854559.8575847,11949.48,1452.1499999999999,16225.38,22568.309999999998,24382.665,25680.96,26917.379999999997,19509.165,0.0
1789854559.8575993,11938.23,1447.155,16230.51,22576.274999999998,24369.165,25657.245,26911.44,19493.37,0.0
1789854559.8576117,11945.52,1442.61,16211.16,22549.905,24355.485,25650.719999999998,26919.765,19503.405,0.0
1789854559.857626,11957.67,1452.645,16213.32,22552.785,24368.67,25666.695,26925.434999999998,19516.77,0.0
1789854559.857638,11954.835,1450.26,16209.18,22543.02,24355.079999999998,25660.26,26928.405,19513.17,0.0
1789854559.8591683,11964.105,1463.895,16227.269999999999,22561.245,24374.114999999998,25678.035,26928.989999999998,19519.515,0.0
1789854559.8592014,11967.48,1467.36,16230.375,22569.524999999998,24382.575,25683.614999999998,26938.89,19522.89,0.0
1789854559.8592353,11967.885,1469.385,16232.715,22570.155,24385.094999999998,25683.66,26941.454999999998,19521.135,0.0
1789854559.8592508,11959.199999999999,1462.5449999999998,16231.14,22567.725,24378.434999999998,25678.754999999997,26937.135,19513.305,0.0
1789854559.8592691,11945.699999999999,1446.435,16215.345,22551.75,24372.945,25665.885,26932.68,19500.12,0.0
1789854559.859284,11937.42,1440.585,16218.269999999999,22549.274999999998,24367.995,25659.09,26927.684999999998,19492.92,0.0
1789854559.8593009,11946.33,1448.82,16230.42,22531.905,24362.055,25667.91,26934.795,19505.204999999998,0.0
1789854559.8593152,11945.789999999999,1442.385,16202.43,22554.719999999998,24363.09,25664.265,26936.46,19504.98,0.0
1789854559.8600743,11939.76,1433.655,16187.22,22550.129999999997,24360.84,25648.11,26936.145,19497.465,0.0
1789854559.8601594,11948.805,1444.6799999999998,16197.074999999999,22528.844999999998,24370.245,25658.145,26939.745,19505.34,0.0
1789854559.8602295,11938.32,1433.61,16194.285,22480.155,24365.295,25670.7,26945.37,19495.844999999998,0.0
1789854559.860247,11950.199999999999,1443.645,16195.545,22509.899999999998,24364.26,25670.7,26945.145,19505.295,0.0
1789854559.8602643,11944.305,1445.895,16216.335,22581.045,24347.7,25645.274999999998,26938.26,19496.385,0.0
1789854559.8602784,11927.07,1432.35,16208.64,22556.879999999997,24340.77,25633.71,26930.969999999998,19478.385,0.0
1789854559.860294,11924.55,1429.605,16203.555,22540.95,24362.504999999997,25656.434999999998,26926.695,19473.795,0.0
1789854559.8603072,11924.955,1429.7849999999999,16205.76,22553.504999999997,24363.719999999998,25645.14,26931.059999999998,19476.27,0.0
1789854559.8603227,11928.555,1431.81,16204.005,22544.28,24361.649999999998,25646.895,26939.52,19482.524999999998,0.0
1789854559.8603354,11937.689999999999,1434.645,16199.369999999999,22544.28,24366.735,25659.36,26947.934999999998,19494.135,0.0
1789854559.8604228,11925.81,1425.33,16194.824999999999,22544.91,24365.204999999998,25653.059999999998,26943.795,19478.024999999998,0.0
1789854559.8604372,11924.55,1423.53,16190.505,22534.695,24359.085,25645.41,26941.995,19475.774999999998,0.0
1789854559.860453,11924.73,1428.03,16199.234999999999,22540.905,24354.405,25639.559999999998,26944.469999999998,19475.46,0.0
1789854559.8606455,11930.445,1433.1599999999999,16199.55,22526.82,24364.485,25653.42,26951.355,19481.085,0.0
1789854559.8606668,11943.359999999999,1442.79,16203.15,22517.01,24363.18,25658.46,26958.645,19493.28,0.0
1789854559.8608167,11930.535,1433.925,16199.369999999999,22515.93,24326.19,25638.03,26951.219999999998,19479.375,0.0
1789854559.8612566,11930.445,1437.5249999999999,16210.305,22557.329999999998,24339.42,25642.395,26946.45,19478.43,0.0
1789854559.8613007,11917.71,1423.3049999999998,16200.0,22552.829999999998,24357.285,25632.809999999998,26943.75,19465.469999999998,0.0
1789854559.8613324,11929.005,1439.19,16216.289999999999,22554.405,24362.055,25653.465,26943.434999999998,19471.815,0.0
1789854559.8613496,11933.595,1436.085,16201.305,22539.87,24367.454999999998,25656.57,26949.285,19475.91,0.0
1789854559.8613732,11926.35,1426.77,16190.865,22529.835,24354.945,25642.754999999997,26955.899999999998,19471.454999999998,0.0
1789854559.8613863,11938.185,1437.48,16199.055,22530.51,24349.635,25651.215,26967.285,19486.575,0.0
1789854559.8614008,11929.23,1428.7949999999998,16191.675,22525.155,24335.864999999998,25639.335,26967.96,19478.07,0.0
1789854559.861413,11923.47,1428.48,16199.55,22540.59,24335.504999999997,25631.37,26960.085,19468.485,0.0
1789854559.863792,11935.8,1442.61,16211.07,22547.385,24352.335,25637.94,26957.475,19475.505,0.0
1789854559.8638167,11923.109999999999,1423.215,16184.835,22512.059999999998,24345.315,25637.085,26961.254999999997,19466.594999999998,0.0
1789854559.8678613,11920.814999999999,1421.9099999999999,16188.705,22514.895,24342.03,25638.48,26961.93,19463.579999999998,0.0
1789854559.8678775,11917.664999999999,1415.1599999999999,16183.035,22516.469999999998,24349.094999999998,25648.605,26968.68,19465.335,0.0
1789854559.8710656,11929.68,1433.1599999999999,16202.609999999999,22536.855,24359.535,25654.68,26967.78,19472.895,0.0
1789854559.8710868,11924.46,1426.185,16187.76,22512.105,24343.155,25642.844999999998,26969.579999999998,19466.73,0.0
1789854559.875723,11925.359999999999,1427.175,16188.435,22513.364999999998,24328.89,25632.539999999997,26973.135,19469.204999999998,0.0
1789854559.8757467,11925.63,1429.695,16194.375,22532.219999999998,24348.735,25647.03,26969.219999999998,19467.585,0.0
1789854559.9635694,11915.595,1420.2,16188.525,22533.03,24347.835,25636.86,26967.69,19456.875,0.0
1789854559.9636033,11913.885,1420.335,16190.955,22536.27,24359.219999999998,25641.719999999998,26966.16,19455.255,0.0
1789854559.963642,11924.955,1430.73,16197.57,22539.69,24355.98,25645.77,26970.57,19465.649999999998,0.0
1789854559.9636571,11916.855,1420.7849999999999,16183.845,22528.17,24331.86,25630.875,26970.48,19456.02,0.0
1789854559.9636729,11928.914999999999,1433.835,16190.91,22526.235,24340.68,25641.855,26973.405,19467.27,0.0
1789854559.963686,11934.359999999999,1431.855,16180.38,22469.85,24327.675,25645.23,26990.055,19477.305,0.0
1789854559.9637008,11932.154999999999,1432.62,16186.904999999999,22466.879999999997,24320.969999999998,25648.2,26993.385,19474.695,0.0
1789854559.9637144,11915.279999999999,1427.76,16200.314999999999,22509.495,24315.48,25628.175,26984.43,19454.895,0.0
1789854559.9639516,11906.055,1420.695,16197.525,22540.86,24326.594999999998,25615.035,26969.67,19442.024999999998,0.0
1789854559.9639795,11896.83,1407.06,16169.715,22522.77,24347.295,25619.895,26950.32,19430.46,0.0
1789854559.96401,11907.99,1418.445,16189.92,22528.844999999998,24332.219999999998,25618.68,26973.495,19445.895,0.0
1789854559.964024,11924.73,1427.895,16189.875,22522.59,24354.405,25643.789999999997,26985.87,19464.075,0.0
1789854559.9640484,11926.26,1426.095,16185.195,22513.815,24347.835,25645.68,26993.969999999998,19463.715,0.0
1789854559.9642024,11908.395,1410.21,16176.06,22505.805,24327.18,25623.765,26985.555,19444.41,0.0
1789854559.9642227,11907.585,1408.5,16170.84,22504.635,24331.635,25620.795,26983.485,19443.195,0.0
1789854559.9642372,11917.35,1418.49,16176.375,22503.195,24330.735,25630.245,26989.245,19453.364999999998,0.0
1789854559.964254,11909.385,1412.28,16172.144999999999,22471.335,24303.735,25619.805,26992.395,19446.344999999998,0.0
1789854559.964268,11904.21,1413.6299999999999,16187.805,22474.62,24304.545,25615.53,26986.23,19438.02,0.0
1789854559.9642847,11904.705,1411.425,16179.119999999999,22542.254999999997,24328.844999999998,25611.614999999998,26982.945,19437.12,0.0
1789854559.9642982,11918.97,1423.1699999999998,16181.91,22526.82,24349.094999999998,25640.055,26987.895,19449.36,0.0
1789854559.9643147,11917.574999999999,1425.2849999999999,16192.935,22537.844999999998,24354.045,25636.545,26987.805,19446.704999999998,0.0
1789854559.964329,11917.125,1424.2949999999998,16191.494999999999,22534.02,24354.855,25641.135,26993.835,19447.695,0.0
1789854559.9643452,11924.46,1431.675,16193.34,22521.285,24337.485,25632.135,27004.184999999998,19455.03,0.0
1789854559.9643593,11911.41,1417.365,16178.67,22509.0,24330.69,25627.274999999998,27003.329999999998,19444.635,0.0
1789854559.9643755,11920.635,1425.96,16180.785,22507.469999999998,24336.315,25635.015,27006.344999999998,19453.41,0.0
1789854559.9643893,11906.73,1409.22,16167.195,22498.695,24324.93,25623.45,27004.725,19441.079999999998,0.0
1789854559.9644055,11916.135,1423.35,16184.564999999999,22511.969999999998,24333.57,25630.469999999998,27003.329999999998,19447.2,0.0
1789854559.9644194,11918.43,1431.1799999999998,16198.244999999999,22516.11,24342.57,25642.754999999997,27005.76,19446.255,0.0
1789854559.964436,11923.515,1428.48,16185.24,22499.82,24337.26,25637.355,27012.51,19452.015,0.0
1789854559.96445,11906.955,1412.55,16175.16,22499.28,24318.719999999998,25618.364999999998,27010.395,19437.344999999998,0.0
1789854559.9644668,11899.664999999999,1408.23,16177.095,22519.079999999998,24321.645,25617.465,27005.355,19428.84,0.0
1789854559.9644806,11901.51,1414.3049999999998,16187.085,22521.6,24321.6,25610.715,27001.89,19427.085,0.0
1789854559.964497,11912.67,1413.72,16167.869999999999,22485.059999999998,24315.66,25625.25,27017.235,19445.219999999998,0.0
1789854559.964511,11902.005,1401.6599999999999,16153.56,22474.98,24308.91,25619.445,27018.09,19435.995,0.0
1789854559.9645274,11911.68,1414.395,16169.085,22485.195,24322.815,25624.934999999998,27017.145,19440.63,0.0
1789854559.9645417,11905.92,1410.975,16171.019999999999,22483.53,24315.254999999997,25615.305,27016.515,19432.395,0.0
1789854559.9645584,11910.33,1417.0049999999999,16177.455,22498.155,24328.35,25625.475,27018.225,19436.625,0.0
1789854559.9647338,11899.619999999999,1403.82,16163.775,22477.32,24322.725,25611.57,27020.43,19426.545,0.0
1789854559.9647794,11900.295,1406.8799999999999,16167.015,22481.504999999997,24314.129999999997,25614.18,27020.61,19425.059999999998,0.0
1789854559.964795,11906.505,1416.87,16178.22,22497.75,24311.43,25618.41,27024.164999999997,19429.829999999998,0.0
1789854559.964813,11920.41,1433.745,16195.949999999999,22516.695,24313.364999999998,25626.059999999998,27027.36,19440.945,0.0
1789854559.9648275,11922.029999999999,1433.1599999999999,16192.484999999999,22511.34,24314.219999999998,25626.96,27028.98,19444.274999999998,0.0
1789854559.9648447,11913.3,1418.895,16175.88,22497.12,24324.21,25626.375,27032.129999999997,19440.855,0.0
1789854559.9648588,11893.77,1403.5049999999999,16170.885,22506.12,24327.225,25612.11,27020.835,19416.465,0.0
1789854559.967178,11892.689999999999,1406.07,16177.005,22515.3,24325.469999999998,25611.164999999997,27018.045,19412.235,0.0
1789854559.967202,11893.41,1399.095,16157.07,22479.704999999998,24314.085,25615.62,27029.61,19418.67,0.0
1789854559.9721587,11893.275,1401.12,16161.345,22491.45,24318.135,25611.48,27027.045,19417.32,0.0
1789854559.9721906,11901.33,1416.4199999999998,16184.789999999999,22525.695,24345.989999999998,25626.645,27019.62,19418.805,0.0
1789854559.975423,11903.984999999999,1413.135,16172.234999999999,22501.754999999997,24338.79,25624.89,27032.76,19426.23,0.0
1789854559.9754517,11897.189999999999,1409.6699999999998,16172.55,22493.879999999997,24319.26,25610.76,27029.879999999997,19417.23,0.0
1789854559.979597,11910.734999999999,1422.315,16183.619999999999,22501.485,24322.23,25619.535,27031.905,19429.875,0.0
1789854559.9796236,11910.645,1417.995,16173.359999999999,22487.67,24323.355,25617.42,27043.02,19434.285,0.0
1789854559.9837298,11908.71,1417.23,16171.109999999999,22467.735,24288.795,25607.7,27046.125,19431.63,0.0
1789854559.983756,11890.35,1396.26,16155.18,22468.95,24281.28,25604.01,27038.16,19413.945,0.0
1789854560.0636013,11890.619999999999,1398.2849999999999,16157.97,22486.41,24327.54,25626.105,27037.71,19417.364999999998,0.0
1789854560.0636332,11887.02,1400.85,16167.96,22480.785,24323.76,25602.434999999998,27034.245,19408.14,0.0
1789854560.0636663,11893.814999999999,1405.62,16170.345,22452.93,24296.355,25595.055,27039.375,19414.89,0.0
1789854560.0636792,11895.75,1398.33,16145.234999999999,22479.12,24324.66,25623.405,27047.969999999998,19423.89,0.0
1789854560.0638292,11898.72,1409.5349999999999,16165.845,22504.184999999998,24336.989999999998,25628.309999999998,27043.155,19421.055,0.0
1789854560.063845,11896.695,1410.615,16176.33,22500.225,24328.26,25619.985,27044.684999999998,19418.265,0.0
1789854560.0638628,11881.17,1395.72,16165.935,22505.085,24324.795,25605.945,27039.51,19403.325,0.0
1789854560.064428,11887.92,1401.615,16166.34,22502.34,24320.204999999998,25604.37,27042.434999999998,19407.465,0.0
1789854560.064468,11900.07,1400.85,16151.22,22472.64,24305.625,25609.274999999998,27060.254999999997,19426.995,0.0
1789854560.064482,11879.685,1387.485,16148.789999999999,22476.285,24306.795,25604.055,27046.934999999998,19401.75,0.0
1789854560.0644972,11884.455,1393.695,16151.22,22470.254999999997,24302.07,25606.934999999998,27045.539999999997,19404.899999999998,0.0
1789854560.0645094,11894.445,1403.37,16158.599999999999,22474.485,24308.55,25609.815,27048.285,19415.655,0.0
1789854560.064524,11894.76,1405.62,16161.795,22473.809999999998,24308.64,25604.235,27051.524999999998,19414.71,0.0
1789854560.064536,11886.255,1398.4199999999998,16157.925,22469.129999999997,24284.879999999997,25589.43,27050.805,19404.495,0.0
1789854560.06455,11888.955,1397.34,16154.46,22484.61,24286.41,25605.18,27054.27,19409.085,0.0
1789854560.0645618,11879.64,1386.36,16142.49,22471.605,24276.78,25599.059999999998,27056.745,19400.085,0.0
1789854560.0645761,11882.88,1393.02,16148.07,22456.575,24281.594999999998,25597.305,27057.87,19401.255,0.0
1789854560.06463,11887.199999999999,1397.79,16155.135,22456.215,24306.48,25606.53,27055.844999999998,19401.885,0.0
1789854560.0646484,11888.64,1402.3799999999999,16168.365,22463.504999999997,24320.475,25605.36,27057.69,19404.63,0.0
1789854560.0646615,11878.244999999999,1389.51,16153.695,22437.629999999997,24294.42,25602.704999999998,27061.739999999998,19396.62,0.0
1789854560.0646763,11888.279999999999,1394.685,16148.16,22453.2,24307.695,25615.62,27062.684999999998,19407.285,0.0
1789854560.0646894,11884.904999999999,1392.435,16145.82,22464.899999999998,24309.945,25605.809999999998,27063.36,19404.809999999998,0.0
1789854560.0647044,11873.654999999999,1383.9299999999998,16145.46,22468.274999999998,24292.17,25586.55,27058.274999999998,19391.219999999998,0.0
1789854560.0647185,11879.234999999999,1392.5249999999999,16159.545,22497.434999999998,24298.155,25589.745,27055.485,19395.045,0.0
1789854560.0647337,11875.545,1389.915,16159.41,22493.07,24305.309999999998,25585.605,27054.945,19390.41,0.0
1789854560.0647464,11865.06,1375.965,16141.949999999999,22454.82,24291.045,25582.905,27054.045,19380.105,0.0
1789854560.064762,11867.895,1374.57,16127.55,22449.555,24296.265,25587.315,27057.105,19386.27,0.0
1789854560.0647752,11852.865,1361.61,16120.17,22444.515,24284.969999999998,25575.795,27051.795,19371.735,0.0
1789854560.0647955,11857.455,1364.715,16122.734999999999,22437.495,24274.26,25578.135,27050.355,19373.625,0.0
1789854560.0648096,11844.72,1349.595,16105.05,22420.395,24250.68,25556.04,27050.579999999998,19363.14,0.0
1789854560.0648246,11841.21,1345.86,16098.66,22420.934999999998,24255.495,25553.745,27047.385,19359.18,0.0
1789854560.0648375,11851.515,1359.1799999999998,16112.43,22420.079999999998,24258.555,25570.17,27047.114999999998,19367.01,0.0
1789854560.0648515,11847.824999999999,1359.405,16123.724999999999,22439.969999999998,24262.155,25567.245,27046.17,19362.78,0.0
1789854560.0648649,11843.73,1357.695,16129.125,22456.71,24283.35,25566.21,27044.73,19358.01,0.0
1789854560.0648794,11845.574999999999,1358.37,16123.769999999999,22447.754999999997,24284.34,25559.145,27046.485,19359.765,0.0
1789854560.0648923,11843.01,1356.7949999999998,16120.664999999999,22439.385,24268.41,25561.079999999998,27046.754999999997,19355.805,0.0
1789854560.064907,11830.545,1341.945,16105.41,22419.809999999998,24240.285,25550.594999999998,27050.445,19346.085,0.0
1789854560.0649197,11833.064999999999,1345.995,16107.525,22420.26,24244.379999999997,25555.23,27050.76,19347.704999999998,0.0
1789854560.0649345,11846.609999999999,1358.685,16116.84,22426.785,24260.579999999998,25568.594999999998,27056.43,19359.855,0.0
1789854560.0649476,11831.67,1342.26,16100.46,22410.585,24239.475,25550.73,27054.719999999998,19346.265,0.0
1789854560.0710957,11834.279999999999,1341.7649999999999,16093.17,22404.329999999998,24238.53,25548.03,27054.989999999998,19347.39,0.0
1789854560.0711234,11831.039999999999,1342.35,16098.029999999999,22413.6,24252.704999999998,25555.004999999997,27049.14,19341.719999999998,0.0
1789854560.072512,11836.755,1354.4099999999999,16119.9,22429.26,24264.629999999997,25565.489999999998,27040.95,19343.43,0.0
1789854560.0725412,11833.785,1353.645,16124.894999999999,22431.105,24255.719999999998,25562.475,27041.355,19339.649999999998,0.0
1789854560.075241,11836.484999999999,1345.185,16097.085,22394.024999999998,24214.905,25544.34,27062.37,19350.27,0.0
1789854560.0752685,11836.845,1344.915,16088.894999999999,22376.52,24212.7,25533.54,27054.629999999997,19348.11,0.0
1789854560.07875,11821.725,1338.885,16090.109999999999,22409.37,24245.145,25528.32,27026.73,19324.305,0.0
1789854560.0787776,11819.835,1337.625,16094.25,22426.11,24264.135,25531.559999999998,27031.995,19324.755,0.0
1789854560.0834577,11820.195,1327.23,16085.88,22408.515,24246.54,25538.355,27056.385,19334.385,0.0
1789854560.0834854,11801.115,1310.715,16074.269999999999,22393.98,24230.969999999998,25531.155,27047.745,19313.19,0.0
1789854560.1745057,11805.57,1315.98,16076.789999999999,22391.82,24240.735,25536.195,27047.25,19314.945,0.0
1789854560.1745484,11825.234999999999,1339.335,16095.285,22405.68,24239.879999999997,25536.285,27052.695,19330.695,0.0
1789854560.174703,11817.585,1331.01,16083.81,22388.175,24227.91,25533.45,27057.555,19325.565,0.0
1789854560.1747305,11811.51,1322.595,16073.595,22375.035,24221.295,25533.585,27056.43,19321.245,0.0
1789854560.1747527,11809.035,1318.32,16070.625,22371.57,24212.16,25530.344999999998,27058.274999999998,19320.614999999998,0.0
1789854560.1747704,11810.925,1319.985,16071.48,22364.01,24214.094999999998,25531.425,27060.66,19323.18,0.0
1789854560.1749108,11815.605,1324.485,16075.89,22376.52,24224.355,25526.475,27060.66,19324.305,0.0
1789854560.1750016,11822.805,1335.645,16088.67,22399.559999999998,24239.835,25543.934999999998,27062.055,19328.67,0.0
1789854560.1750371,11830.365,1345.4099999999999,16100.82,22426.11,24246.809999999998,25543.35,27066.645,19332.495,0.0
1789854560.1750548,11825.145,1342.935,16103.115,22425.704999999998,24244.11,25539.66,27063.495,19323.405,0.0
1789854560.1750753,11813.895,1328.31,16088.039999999999,22394.835,24235.379999999997,25539.93,27068.129999999997,19315.305,0.0
1789854560.1750917,11811.914999999999,1326.1499999999999,16085.295,22400.774999999998,24238.62,25543.98,27069.434999999998,19314.63,0.0
1789854560.1751115,11819.609999999999,1335.195,16092.18,22406.129999999997,24236.055,25536.015,27069.93,19319.309999999998,0.0
1789854560.1751277,11830.05,1342.08,16092.09,22402.26,24234.84,25549.695,27076.545,19331.145,0.0
1789854560.1751468,11825.505,1341.0449999999998,16095.644999999999,22411.62,24242.129999999997,25544.879999999997,27073.844999999998,19325.925,0.0
1789854560.1751633,11813.13,1328.355,16085.97,22400.73,24230.655,25532.055,27072.945,19313.82,0.0
1789854560.175182,11814.57,1329.2549999999999,16087.14,22396.184999999998,24223.545,25534.98,27077.085,19316.024999999998,0.0
1789854560.1751983,11830.185,1350.135,16108.92,22415.76,24237.225,25551.09,27076.635,19326.42,0.0
1789854560.1752152,11835.359999999999,1355.355,16110.135,22404.645,24226.829999999998,25551.495,27083.34,19331.91,0.0
1789854560.1752298,11826.945,1328.76,16065.045,22339.89,24206.85,25545.78,27095.94,19336.184999999998,0.0
1789854560.1752467,11810.744999999999,1318.995,16064.279999999999,22358.43,24222.105,25529.805,27077.445,19316.655,0.0
1789854560.1752615,11796.885,1314.27,16074.18,22389.614999999998,24230.295,25510.184999999998,27062.325,19294.92,0.0
1789854560.175279,11798.91,1312.3799999999999,16068.06,22370.579999999998,24223.364999999998,25514.37,27073.844999999998,19302.39,0.0
1789854560.1752937,11806.199999999999,1319.445,16078.23,22397.219999999998,24227.684999999998,25528.545,27073.754999999997,19308.645,0.0
1789854560.175311,11805.75,1322.01,16084.305,22411.62,24236.954999999998,25526.52,27070.785,19303.649999999998,0.0
1789854560.1753263,11804.31,1321.11,16080.66,22392.225,24216.434999999998,25523.46,27080.28,19301.265,0.0
1789854560.1753433,11819.025,1337.94,16096.365,22397.04,24215.579999999998,25535.385,27082.215,19311.48,0.0
1789854560.1753583,11811.51,1326.96,16081.244999999999,22382.55,24220.934999999998,25532.64,27087.66,19308.329999999998,0.0
1789854560.1753752,11820.195,1336.23,16090.47,22401.045,24245.684999999998,25541.235,27090.809999999998,19318.005,0.0
1789854560.17539,11818.71,1333.62,16084.935,22395.465,24236.954999999998,25534.079999999998,27089.055,19314.63,0.0
1789854560.1754072,11811.645,1325.475,16076.699999999999,22373.594999999998,24206.805,25518.555,27090.045,19307.835,0.0
1789854560.175422,11816.324999999999,1333.845,16086.285,22387.184999999998,24220.665,25526.07,27085.545,19309.094999999998,0.0
1789854560.175439,11808.945,1323.09,16074.855,22379.76,24220.844999999998,25516.17,27091.079999999998,19304.684999999998,0.0
1789854560.175454,11797.109999999999,1308.375,16062.57,22370.085,24226.469999999998,25527.195,27094.59,19297.26,0.0
1789854560.1754713,11794.05,1303.245,16053.164999999999,22360.184999999998,24233.67,25528.545,27095.355,19295.594999999998,0.0
1789854560.175486,11800.26,1314.855,16068.555,22372.469999999998,24227.73,25521.12,27089.954999999998,19297.98,0.0
1789854560.1755033,11793.869999999999,1309.455,16068.06,22375.98,24193.844999999998,25505.37,27086.309999999998,19289.52,0.0
1789854560.1755176,11800.305,1314.855,16072.47,22373.055,24203.25,25517.925,27088.605,19296.585,0.0
1789854560.1755352,11801.07,1318.095,16078.814999999999,22374.27,24202.44,25519.995,27094.274999999998,19296.045,0.0
1789854560.17555,11787.795,1302.12,16058.07,22347.09,24171.704999999998,25502.129999999997,27089.954999999998,19281.87,0.0
1789854560.1755664,11782.484999999999,1294.11,16046.505,22349.969999999998,24185.969999999998,25493.355,27083.43,19277.505,0.0
1789854560.1755807,11783.925,1294.9199999999998,16048.394999999999,22364.864999999998,24205.274999999998,25502.175,27084.555,19279.844999999998,0.0
1789854560.1755977,11781.63,1292.04,16042.41,22343.175,24187.5,25504.559999999998,27092.61,19277.415,0.0
1789854560.1756124,11782.935,1294.29,16042.14,22313.879999999997,24187.32,25512.344999999998,27094.86,19276.469999999998,0.0
1789854560.1756291,11785.904999999999,1298.835,16048.035,22316.67,24191.235,25512.48,27095.129999999997,19279.079999999998,0.0
1789854560.175644,11793.42,1311.705,16068.42,22347.629999999997,24193.215,25513.739999999998,27093.51,19283.76,0.0
1789854560.1821089,11793.015,1307.115,16056.99,22367.43,24212.835,25513.649999999998,27095.085,19284.614999999998,0.0
1789854560.1821508,11791.71,1309.95,16058.789999999999,22396.094999999998,24232.274999999998,25511.715,27088.289999999997,19279.71,0.0
1789854560.1827605,11797.289999999999,1315.62,16071.435,22384.125,24214.454999999998,25509.42,27099.09,19285.92,0.0
1789854560.1827958,11791.664999999999,1308.1499999999999,16066.755,22378.32,24212.07,25512.885,27100.395,19282.68,0.0
1789854560.1870935,11791.845,1308.1499999999999,16064.324999999999,22378.004999999997,24213.645,25516.98,27100.71,19282.59,0.0
1789854560.1871285,11789.73,1302.48,16053.705,22366.079999999998,24213.239999999998,25518.96,27100.575,19280.52,0.0
1789854560.1919007,11789.955,1303.7849999999999,16053.93,22354.875,24201.899999999998,25507.215,27107.954999999998,19283.445,0.0
1789854560.1919456,11789.64,1305.99,16054.154999999999,22348.035,24203.565,25509.87,27105.795,19279.71,0.0
1789854560.2767055,11788.244999999999,1304.28,16050.15,22344.975,24195.735,25505.954999999998,27108.629999999997,19277.145,0.0
1789854560.2767243,11789.055,1305.135,16056.81,22360.32,24193.934999999998,25510.59,27107.954999999998,19281.285,0.0
1789854560.2767413,11775.96,1294.155,16050.689999999999,22350.42,24174.495,25491.059999999998,27103.77,19266.255,0.0
1789854560.276748,11773.619999999999,1285.7849999999999,16035.57,22334.489999999998,24181.695,25487.954999999998,27106.515,19266.255,0.0
1789854560.2767556,11785.005,1304.01,16059.105,22364.774999999998,24224.309999999998,25510.815,27102.329999999998,19271.61,0.0
1789854560.2767615,11777.58,1296.855,16051.635,22357.395,24199.559999999998,25510.004999999997,27103.004999999997,19264.005,0.0
1789854560.2767692,11788.515,1301.1299999999999,16046.505,22344.48,24171.48,25508.61,27115.469999999998,19279.26,0.0
1789854560.2767756,11774.52,1288.395,16037.279999999999,22335.524999999998,24169.094999999998,25494.75,27109.844999999998,19264.23,0.0
1789854560.2767828,11785.994999999999,1301.355,16044.885,22343.76,24194.07,25506.405,27110.43,19273.454999999998,0.0
1789854560.2767887,11787.435,1304.145,16052.4,22350.87,24210.855,25506.989999999998,27111.69,19272.195,0.0
1789854560.2767963,11772.045,1290.465,16044.93,22340.204999999998,24196.68,25492.364999999998,27110.655,19258.155,0.0
1789854560.2768028,11763.359999999999,1281.195,16037.775,22349.52,24192.27,25485.434999999998,27105.03,19249.829999999998,0.0
1789854560.27681,11766.33,1283.6699999999998,16037.73,22341.239999999998,24183.405,25484.309999999998,27106.379999999997,19250.864999999998,0.0
1789854560.2768528,11780.369999999999,1296.585,16046.82,22343.489999999998,24194.655,25502.94,27113.535,19262.385,0.0
1789854560.2768884,11784.24,1299.87,16048.89,22345.785,24192.585,25500.96,27123.57,19268.594999999998,0.0
1789854560.2769284,11769.435,1292.85,16052.265,22353.93,24169.995,25474.545,27109.62,19248.48,0.0
1789854560.2769384,11768.355,1288.7549999999999,16041.644999999999,22338.585,24188.219999999998,25488.27,27105.66,19247.895,0.0
1789854560.2769632,11768.58,1287.0,16045.56,22346.73,24193.53,25496.415,27114.075,19254.555,0.0
1789854560.276996,11759.535,1273.4099999999999,16025.58,22318.155,24158.7,25478.82,27119.114999999998,19246.454999999998,0.0
1789854560.2770493,11753.055,1267.29,16018.515,22305.51,24159.105,25475.985,27106.559999999998,19236.059999999998,0.0
1789854560.2773242,11757.824999999999,1273.77,16022.97,22304.114999999998,24151.905,25468.605,27108.809999999998,19239.614999999998,0.0
1789854560.277351,11764.484999999999,1281.51,16030.26,22308.165,24177.555,25482.87,27108.585,19243.934999999998,0.0
1789854560.2773635,11761.965,1277.595,16026.119999999999,22297.995,24158.52,25470.135,27115.829999999998,19241.55,0.0
1789854560.27737,11762.055,1281.825,16042.455,22324.77,24165.629999999997,25476.795,27118.26,19240.829999999998,0.0
1789854560.277377,11770.109999999999,1291.185,16050.465,22358.835,24201.855,25497.765,27119.07,19248.255,0.0
1789854560.2773829,11765.925,1283.1299999999999,16028.234999999999,22359.51,24207.57,25500.825,27120.69,19246.23,0.0
1789854560.2773895,11760.525,1280.385,16030.484999999999,22341.015,24180.21,25476.93,27122.219999999998,19238.94,0.0
1789854560.2774003,11773.935,1295.325,16041.195,22335.975,24176.43,25479.36,27120.6,19248.66,0.0
1789854560.2774072,11772.945,1289.7,16036.335,22333.05,24177.555,25481.475,27124.155,19250.055,0.0
1789854560.2774131,11765.564999999999,1282.95,16033.635,22335.21,24186.015,25491.465,27126.945,19242.855,0.0
1789854560.2774198,11756.88,1274.445,16022.385,22314.96,24159.105,25482.51,27129.96,19234.395,0.0
1789854560.2774253,11754.765,1275.21,16027.244999999999,22317.704999999998,24150.239999999998,25471.079999999998,27120.735,19229.355,0.0
1789854560.277432,11753.324999999999,1270.35,16017.255,22321.305,24160.184999999998,25471.8,27121.545,19230.795,0.0
1789854560.2774377,11758.32,1272.78,16016.76,22322.925,24168.6,25477.155,27130.23,19239.21,0.0
1789854560.277444,11767.59,1283.31,16027.425,22329.18,24188.309999999998,25490.745,27133.515,19246.41,0.0
1789854560.2774496,11760.75,1277.955,16025.535,22323.015,24176.25,25483.454999999998,27129.87,19238.895,0.0
1789854560.277456,11756.115,1273.68,16021.08,22319.01,24167.024999999998,25482.195,27130.094999999998,19233.989999999998,0.0
1789854560.2774615,11748.285,1263.2849999999999,16006.05,22300.469999999998,24146.64,25470.36,27130.86,19227.105,0.0
1789854560.277468,11752.65,1272.915,16019.279999999999,22308.66,24148.305,25468.829999999998,27127.395,19229.085,0.0
1789854560.2774737,11738.97,1256.6699999999998,16002.63,22294.844999999998,24154.335,25458.254999999997,27126.989999999998,19216.71,0.0
1789854560.2774804,11740.5,1261.215,16008.119999999999,22299.93,24150.555,25455.42,27122.309999999998,19215.54,0.0
1789854560.2775197,11754.675,1272.69,16013.925,22297.77,24143.535,25468.2,27129.735,19229.76,0.0
1789854560.280472,11751.795,1271.79,16015.275,22293.36,24140.61,25466.129999999997,27130.86,19226.835,0.0
1789854560.2804809,11746.71,1268.46,16019.91,22301.82,24155.19,25462.17,27127.53,19220.85,0.0
1789854560.28418,11751.615,1269.6299999999999,16015.005,22313.52,24166.575,25461.045,27129.825,19224.585,0.0
1789854560.284191,11745.449999999999,1258.9199999999998,15999.705,22278.555,24143.715,25467.93,27135.945,19221.57,0.0
1789854560.2911549,11724.029999999999,1238.1299999999999,15983.64,22275.135,24139.62,25463.879999999997,27130.68,19202.085,0.0
1789854560.2911663,11727.359999999999,1246.95,15998.13,22311.855,24146.37,25447.32,27122.355,19200.96,0.0
1789854560.2911773,11724.93,1247.6699999999998,15999.48,22311.809999999998,24150.78,25444.26,27118.395,19194.704999999998,0.0
1789854560.2911825,11736.99,1258.74,16006.095,22292.055,24140.79,25453.98,27123.795,19206.405,0.0
1789854560.2943525,11727.63,1244.97,15985.71,22265.055,24128.954999999998,25439.985,27125.954999999998,19198.934999999998,0.0
1789854560.294366,11715.66,1234.395,15980.939999999999,22285.035,24128.91,25430.219999999998,27119.655,19187.145,0.0
1789854560.3758745,11715.255,1230.6599999999999,15973.154999999999,22285.079999999998,24133.184999999998,25431.165,27120.329999999998,19186.245,0.0
1789854560.3758993,11719.98,1234.26,15977.07,22276.934999999998,24130.98,25436.52,27127.305,19193.175,0.0
1789854560.3759227,11732.085,1249.695,15995.925,22284.405,24131.385,25446.69,27132.704999999998,19202.895,0.0
1789854560.375932,11720.205,1240.335,15989.175,22243.094999999998,24112.395,25438.094999999998,27130.905,19189.755,0.0
1789854560.3759427,11714.984999999999,1232.865,15976.98,22240.98,24116.309999999998,25435.44,27127.844999999998,19185.344999999998,0.0
1789854560.3759522,11709.855,1228.635,15978.285,22288.454999999998,24128.91,25427.745,27123.12,19179.63,0.0
1789854560.3759632,11713.59,1231.83,15980.265,22289.309999999998,24134.355,25432.605,27124.649999999998,19184.04,0.0
1789854560.375972,11732.85,1251.855,15995.34,22287.6,24128.82,25451.325,27134.64,19201.14,0.0
1789854560.3759823,11732.76,1257.03,16006.095,22293.315,24117.12,25447.454999999998,27135.495,19199.07,0.0
1789854560.3759909,11731.5,1254.2849999999999,16000.064999999999,22288.094999999998,24117.975,25441.695,27135.36,19196.01,0.0
1789854560.376001,11726.234999999999,1251.45,16005.465,22299.795,24136.2,25425.719999999998,27131.085,19189.575,0.0
1789854560.3760095,11734.109999999999,1256.445,15999.255,22283.684999999998,24130.44,25429.41,27138.285,19197.899999999998,0.0
1789854560.3760197,11728.17,1251.99,15994.26,22285.754999999997,24149.835,25453.26,27138.87,19193.535,0.0
1789854560.3760283,11716.605,1243.395,15996.24,22289.895,24143.399999999998,25455.015,27131.715,19181.745,0.0
1789854560.3760383,11704.949999999999,1223.1,15968.43,22264.065,24121.98,25435.62,27137.34,19175.175,0.0
1789854560.376047,11704.68,1221.885,15961.769999999999,22266.045,24135.12,25428.375,27135.585,19173.149999999998,0.0
1789854560.3763952,11707.335,1226.655,15969.734999999999,22270.454999999998,24128.82,25429.454999999998,27135.45,19174.094999999998,0.0
1789854560.3764105,11715.345,1239.57,15985.26,22282.469999999998,24137.46,25440.614999999998,27135.045,19179.225,0.0
1789854560.376423,11706.795,1228.185,15971.355,22266.135,24127.245,25432.155,27138.78,19172.52,0.0
1789854560.3764322,11706.975,1229.76,15972.705,22265.055,24126.165,25433.28,27138.555,19171.395,0.0
1789854560.3764427,11714.805,1237.185,15979.185,22267.934999999998,24124.184999999998,25433.954999999998,27140.579999999998,19179.855,0.0
1789854560.3764513,11705.355,1226.925,15971.355,22262.579999999998,24122.61,25432.469999999998,27143.1,19171.485,0.0
1789854560.3764615,11719.71,1243.0349999999999,15985.755,22275.945,24130.754999999997,25441.515,27149.039999999997,19183.184999999998,0.0
1789854560.37647,11711.25,1229.985,15968.519999999999,22250.475,24115.68,25429.545,27153.135,19177.38,0.0
1789854560.37648,11709.945,1230.615,15967.89,22246.335,24110.37,25425.855,27149.535,19175.355,0.0
1789854560.3764884,11717.775,1241.19,15981.75,22254.93,24112.125,25434.585,27149.355,19179.765,0.0
1789854560.3764985,11708.955,1227.735,15964.83,22223.7,24097.004999999997,25429.545,27155.745,19173.555,0.0
1789854560.3765068,11704.994999999999,1223.325,15956.91,22229.864999999998,24105.555,25427.879999999997,27155.34,19168.155,0.0
1789854560.3765173,11697.255,1227.06,15977.519999999999,22279.905,24112.754999999997,25414.829999999998,27144.495,19155.6,0.0
1789854560.376526,11700.314999999999,1228.5449999999998,15980.805,22271.309999999998,24105.51,25414.605,27146.385,19160.37,0.0
1789854560.376536,11713.77,1233.7649999999999,15973.875,22254.66,24110.504999999997,25432.02,27150.704999999998,19175.895,0.0
1789854560.376545,11714.58,1233.225,15972.885,22242.6,24109.605,25427.024999999998,27155.07,19179.315,0.0
1789854560.376555,11697.21,1219.635,15970.005,22261.77,24115.86,25409.61,27144.719999999998,19161.945,0.0
1789854560.3765635,11681.505,1205.82,15955.38,22258.754999999997,24089.94,25393.725,27141.704999999998,19146.87,0.0
1789854560.376574,11685.779999999999,1209.06,15953.715,22237.379999999997,24074.594999999998,25394.579999999998,27145.079999999998,19149.57,0.0
1789854560.376583,11690.279999999999,1212.885,15957.81,22249.89,24107.579999999998,25414.785,27143.325,19153.755,0.0
1789854560.3765936,11680.65,1203.75,15952.14,22253.129999999997,24124.004999999997,25416.315,27140.895,19145.835,0.0
1789854560.3766024,11671.47,1194.6599999999999,15942.105,22238.28,24094.305,25399.71,27141.614999999998,19135.71,0.0
1789854560.376613,11671.38,1193.58,15939.404999999999,22238.91,24083.684999999998,25393.905,27138.96,19134.18,0.0
1789854560.3766215,11686.185,1211.6699999999998,15955.47,22242.105,24094.754999999997,25404.03,27141.12,19145.61,0.0
1789854560.3784688,11688.705,1213.83,15958.305,22216.454999999998,24088.004999999997,25401.42,27145.53,19149.434999999998,0.0
1789854560.3784857,11692.26,1213.9199999999998,15950.654999999999,22228.649999999998,24092.594999999998,25408.934999999998,27152.954999999998,19154.25,0.0
1789854560.38231,11704.904999999999,1226.115,15961.769999999999,22254.12,24106.68,25425.585,27168.075,19164.96,0.0
1789854560.3823333,11684.88,1208.835,15952.095,22237.92,24091.02,25406.91,27151.02,19145.88,0.0
1789854560.3862536,11683.89,1208.79,15951.779999999999,22223.925,24080.309999999998,25405.379999999997,27151.335,19143.405,0.0
1789854560.3862784,11680.83,1207.1699999999998,15951.51,22223.925,24081.434999999998,25401.645,27151.379999999997,19138.77,0.0
1789854560.3904169,11671.74,1200.0149999999999,15946.019999999999,22209.21,24061.274999999998,25379.91,27147.96,19127.925,0.0
1789854560.390444,11674.664999999999,1199.52,15945.3,22221.495,24080.445,25392.6,27144.945,19132.38,0.0
1789854560.3943465,11662.605,1186.3799999999999,15934.23,22212.315,24072.434999999998,25379.235,27146.925,19124.19,0.0
1789854560.3943803,11669.67,1191.33,15928.785,22228.335,24105.78,25396.29,27147.914999999997,19130.67,0.0
1789854560.4813032,11672.82,1195.2,15933.599999999999,22226.535,24085.98,25397.325,27152.684999999998,19133.01,0.0
1789854560.481331,11671.335,1194.57,15935.67,22224.195,24084.45,25397.46,27154.17,19130.399999999998,0.0
1789854560.4813633,11674.439999999999,1199.475,15941.34,22224.42,24082.875,25398.899999999998,27157.95,19131.075,0.0
1789854560.4813757,11675.115,1200.4199999999998,15939.945,22196.024999999998,24071.085,25394.579999999998,27159.524999999998,19130.76,0.0
1789854560.4813893,11656.529999999999,1189.7549999999999,15936.75,22215.015,24054.84,25376.399999999998,27139.41,19106.82,0.0
1789854560.4814653,11650.904999999999,1185.3,15928.56,22232.835,24075.36,25384.995,27124.695,19102.725,0.0
1789854560.4814808,11655.225,1181.745,15928.425,22228.92,24085.305,25378.335,27143.28,19113.885,0.0
1789854560.4814923,11652.21,1174.5449999999998,15913.484999999999,22187.385,24052.545,25362.719999999998,27151.92,19111.364999999998,0.0
1789854560.4815052,11650.23,1173.51,15909.48,22178.52,24042.87,25356.375,27149.085,19107.27,0.0
1789854560.4815164,11646.99,1172.385,15912.81,22192.469999999998,24045.704999999998,25352.73,27142.92,19102.32,0.0
1789854560.4815292,11649.824999999999,1175.49,15919.56,22202.82,24061.41,25370.235,27143.01,19106.505,0.0
1789854560.4815955,11649.42,1173.4199999999998,15915.42,22195.754999999997,24074.37,25388.01,27147.105,19106.774999999998,0.0
1789854560.4816115,11646.9,1172.2949999999998,15918.029999999999,22193.055,24067.754999999997,25376.309999999998,27144.18,19101.69,0.0
1789854560.4816227,11634.074999999999,1156.68,15900.345,22168.575,24031.035,25351.469999999998,27145.62,19091.969999999998,0.0
1789854560.4816363,11641.635,1164.33,15902.685,22177.215,24043.635,25364.34,27141.93,19097.055,0.0
1789854560.4816475,11638.935,1162.575,15903.585,22183.605,24048.675,25358.489999999998,27142.649999999998,19093.41,0.0
1789854560.48166,11622.779999999999,1143.36,15886.305,22159.98,24033.645,25344.225,27140.67,19080.18,0.0
1789854560.4816709,11624.4,1149.705,15898.32,22172.67,24048.495,25356.015,27133.695,19079.01,0.0
1789854560.4816835,11622.51,1147.32,15892.74,22170.87,24048.719999999998,25355.295,27134.73,19079.145,0.0
1789854560.4816945,11617.154999999999,1138.905,15881.13,22165.335,24034.32,25343.954999999998,27135.855,19076.13,0.0
1789854560.4817069,11600.91,1124.685,15871.41,22158.945,24024.015,25330.86,27127.079999999998,19058.579999999998,0.0
1789854560.481718,11613.734999999999,1141.695,15889.41,22174.2,24031.71,25337.745,27126.0,19068.434999999998,0.0
1789854560.4817307,11621.205,1146.195,15892.109999999999,22171.545,24035.309999999998,25346.024999999998,27135.945,19075.995,0.0
1789854560.4817417,11609.055,1130.1299999999999,15870.195,22146.524999999998,24016.23,25329.51,27135.405,19066.094999999998,0.0
1789854560.481754,11604.015,1126.1699999999998,15866.144999999999,22143.78,24011.82,25324.605,27129.285,19060.875,0.0
1789854560.4817648,11605.949999999999,1129.455,15867.81,22139.684999999998,24007.77,25324.965,27131.445,19062.719999999998,0.0
1789854560.4817767,11611.125,1134.6299999999999,15871.814999999999,22136.04,23998.094999999998,25327.934999999998,27135.719999999998,19068.03,0.0
1789854560.4817877,11621.97,1143.315,15875.91,22134.96,24009.434999999998,25347.42,27141.344999999998,19078.425,0.0
1789854560.4818003,11619.045,1142.73,15876.945,22125.239999999998,24020.37,25343.46,27140.805,19074.735,0.0
1789854560.481811,11603.295,1124.235,15859.8,22118.535,24014.114999999998,25327.754999999997,27138.42,19060.92,0.0
1789854560.4818234,11600.369999999999,1121.175,15855.255,22145.535,24008.175,25325.504999999997,27136.754999999997,19057.905,0.0
1789854560.4818344,11615.445,1139.1299999999999,15872.22,22160.34,24039.45,25343.504999999997,27136.98,19068.93,0.0
1789854560.481847,11623.904999999999,1150.29,15889.095,22173.165,24035.265,25340.985,27142.2,19075.23,0.0
1789854560.481858,11622.869999999999,1150.695,15891.3,22171.23,24011.82,25330.725,27143.01,19073.114999999998,0.0
1789854560.4818704,11619.359999999999,1144.8,15883.154999999999,22142.565,23992.829999999998,25326.585,27146.204999999998,19071.36,0.0
1789854560.4818811,11605.275,1128.78,15865.83,22135.86,24000.39,25320.465,27144.629999999997,19058.309999999998,0.0
1789854560.4818933,11602.08,1127.745,15868.98,22162.815,24042.059999999998,25333.829999999998,27136.485,19054.53,0.0
1789854560.481904,11607.705,1132.695,15873.795,22160.52,24052.004999999997,25341.885,27140.94,19058.985,0.0
1789854560.4819162,11606.22,1132.605,15876.404999999999,22173.93,24050.969999999998,25342.11,27143.73,19057.905,0.0
1789854560.4819272,11599.154999999999,1126.53,15870.015,22160.879999999997,24023.655,25329.149999999998,27144.315,19049.895,0.0
1789854560.4819396,11601.404999999999,1129.995,15871.365,22147.065,24014.52,25325.954999999998,27144.629999999997,19050.57,0.0
1789854560.4819505,11605.32,1133.6399999999999,15876.494999999999,22146.434999999998,24014.969999999998,25328.61,27147.96,19054.17,0.0
1789854560.4824543,11614.545,1140.705,15877.394999999999,22156.92,24026.085,25344.495,27152.46,19063.934999999998,0.0
1789854560.4824796,11606.625,1134.135,15875.369999999999,22158.0,24027.885,25335.585,27142.559999999998,19054.575,0.0
1789854560.486866,11590.335,1115.1,15859.035,22136.219999999998,24004.035,25307.37,27139.905,19042.065,0.0
1789854560.4868956,11589.525,1113.93,15853.005,22126.725,23993.64,25309.079999999998,27140.579999999998,19040.399999999998,0.0
1789854560.490403,11593.26,1119.105,15858.0,22131.629999999997,23999.85,25313.895,27140.489999999998,19042.155,0.0
1789854560.49043,11601.855,1127.8799999999999,15864.029999999999,22137.344999999998,24008.579999999998,25326.719999999998,27148.32,19051.38,0.0
1789854560.4988904,11597.49,1122.84,15857.279999999999,22131.135,23998.094999999998,25314.885,27150.66,19047.645,0.0
1789854560.4989252,11599.244999999999,1125.0449999999998,15862.185,22140.809999999998,24015.645,25322.76,27147.87,19048.184999999998,0.0
1789854560.4989552,11590.965,1113.435,15849.99,22126.14,24001.605,25311.195,27150.03,19039.95,0.0
1789854560.4989672,11598.345,1122.6599999999999,15854.67,22124.835,23996.204999999998,25319.745,27153.045,19043.46,0.0
1789854560.581725,11616.615,1142.955,15873.21,22136.895,23998.004999999997,25334.954999999998,27161.1,19058.175,0.0
1789854560.5817575,11606.67,1140.6599999999999,15881.984999999999,22153.545,24018.704999999998,25329.96,27147.735,19043.594999999998,0.0
1789854560.581791,11585.295,1117.0349999999999,15868.484999999999,22147.92,24001.469999999998,25300.17,27143.91,19029.059999999998,0.0
1789854560.5818048,11579.445,1105.29,15854.175,22143.645,24001.965,25294.95,27142.605,19031.13,0.0
1789854560.581823,11591.189999999999,1115.28,15855.255,22140.36,24033.78,25323.57,27146.204999999998,19041.344999999998,0.0
1789854560.581836,11595.105,1118.97,15857.369999999999,22122.045,24014.969999999998,25319.25,27153.09,19042.11,0.0
1789854560.5818512,11581.199999999999,1105.11,15843.555,22121.01,23996.745,25309.17,27150.524999999998,19027.71,0.0
1789854560.5818639,11587.904999999999,1111.4099999999999,15848.685,22134.015,24011.73,25315.335,27145.754999999997,19032.434999999998,0.0
1789854560.5823689,11590.335,1113.5249999999999,15849.855,22125.149999999998,24007.094999999998,25312.23,27150.93,19036.53,0.0
1789854560.5823977,11582.279999999999,1105.7849999999999,15841.845,22114.395,23996.969999999998,25307.73,27156.195,19030.545,0.0
1789854560.582426,11594.16,1120.77,15856.83,22126.004999999997,24007.86,25324.965,27158.399999999998,19038.42,0.0
1789854560.5824397,11587.23,1112.895,15850.664999999999,22117.23,23986.98,25306.92,27155.969999999998,19030.995,0.0
1789854560.5824547,11593.26,1124.1,15864.84,22134.645,23999.219999999998,25311.555,27155.52,19034.91,0.0
1789854560.582468,11584.035,1112.04,15850.619999999999,22121.954999999998,24001.29,25301.07,27157.274999999998,19028.88,0.0
1789854560.5832508,11590.244999999999,1119.105,15859.484999999999,22131.18,24007.95,25317.18,27156.195,19032.614999999998,0.0
1789854560.5832875,11592.9,1114.605,15847.875,22109.895,24002.82,25320.555,27166.14,19037.07,0.0
1789854560.5833216,11580.84,1102.995,15835.545,22096.844999999998,23994.855,25308.629999999997,27166.995,19026.585,0.0
1789854560.5833392,11587.859999999999,1114.6499999999999,15847.74,22111.739999999998,24005.385,25317.045,27162.855,19029.329999999998,0.0
1789854560.5833588,11583.855,1112.58,15849.765,22103.504999999997,23993.91,25303.094999999998,27162.495,19025.325,0.0
1789854560.583376,11591.955,1121.76,15860.34,22124.969999999998,24011.954999999998,25322.445,27164.16,19033.469999999998,0.0
1789854560.583396,11595.869999999999,1125.495,15863.894999999999,22142.16,24018.84,25316.1,27162.675,19036.17,0.0
1789854560.5834126,11589.93,1118.79,15859.035,22134.195,24013.35,25311.735,27163.71,19032.344999999998,0.0
1789854560.5834312,11589.029999999999,1118.655,15856.92,22118.535,24009.66,25314.84,27169.245,19031.309999999998,0.0
1789854560.583448,11580.525,1113.435,15852.285,22110.93,23998.5,25307.73,27167.399999999998,19021.545,0.0
1789854560.5834663,11587.455,1120.32,15860.115,22130.73,24009.524999999998,25318.934999999998,27163.8,19024.335,0.0
1789854560.5834827,11572.289999999999,1104.165,15848.234999999999,22127.309999999998,24009.75,25309.8,27162.495,19012.184999999998,0.0
1789854560.583502,11569.814999999999,1098.72,15843.644999999999,22115.475,23984.73,25287.3,27164.925,19012.05,0.0
1789854560.583518,11567.699999999999,1094.355,15831.449999999999,22104.045,23985.585,25299.765,27165.87,19010.43,0.0
1789854560.58354,11581.02,1105.155,15835.545,22101.344999999998,23985.18,25304.445,27168.84,19022.94,0.0
1789854560.5835564,11581.605,1108.98,15843.914999999999,22097.7,23993.774999999998,25304.67,27170.91,19023.344999999998,0.0
1789854560.583576,11573.145,1108.665,15856.56,22123.754999999997,23994.719999999998,25295.985,27161.46,19010.925,0.0
1789854560.5835924,11558.475,1090.7549999999999,15835.994999999999,22106.879999999997,23972.309999999998,25280.684999999998,27157.95,18997.829999999998,0.0
1789854560.5836124,11558.789999999999,1090.0349999999999,15830.595,22102.2,23977.125,25284.555,27157.094999999998,18996.48,0.0
1789854560.583629,11568.555,1100.07,15838.335,22110.21,23996.745,25295.355,27160.515,19007.684999999998,0.0
1789854560.5836482,11562.525,1094.58,15837.66,22112.684999999998,24003.405,25293.375,27163.17,19004.265,0.0
1789854560.5836644,11554.154999999999,1082.79,15820.38,22086.719999999998,23991.66,25287.704999999998,27165.285,18995.805,0.0
1789854560.583684,11555.145,1079.6399999999999,15809.039999999999,22072.32,23989.184999999998,25288.335,27168.434999999998,18997.11,0.0
1789854560.5837002,11562.029999999999,1091.295,15822.404999999999,22084.245,23979.195,25289.415,27166.95,19001.024999999998,0.0
1789854560.5837197,11565.81,1107.0449999999998,15855.57,22122.405,23988.149999999998,25287.075,27157.454999999998,18999.18,0.0
1789854560.583736,11552.67,1090.575,15843.555,22127.579999999998,23985.045,25282.98,27158.309999999998,18988.29,0.0
1789854560.5837543,11563.56,1087.56,15821.144999999999,22071.69,23971.59,25291.079999999998,27171.135,19006.245,0.0
1789854560.583771,11559.869999999999,1088.145,15821.414999999999,22045.32,23955.254999999997,25286.265,27165.285,18997.469999999998,0.0
1789854560.589064,11546.279999999999,1073.385,15807.465,22060.665,23952.195,25273.125,27162.585,18984.87,0.0
1789854560.5890927,11557.484999999999,1088.28,15824.43,22099.454999999998,23974.785,25283.385,27158.625,18992.7,0.0
1789854560.590356,11559.779999999999,1090.305,15829.47,22107.555,23975.91,25278.93,27166.004999999997,18997.335,0.0
1789854560.5903852,11545.109999999999,1076.985,15820.154999999999,22092.975,23976.855,25270.245,27156.96,18981.36,0.0
1789854560.5949514,11537.64,1071.0,15822.045,22065.885,23959.305,25260.48,27156.87,18973.71,0.0
1789854560.594993,11553.435,1081.08,15809.355,22075.695,23977.665,25286.129999999997,27165.015,18990.36,0.0
1789854560.6001215,11557.26,1083.51,15805.98,22087.17,23982.344999999998,25291.62,27172.395,18994.32,0.0
1789854560.6001625,11555.234999999999,1087.5149999999999,15826.5,22101.75,23971.454999999998,25279.829999999998,27168.344999999998,18988.695,0.0
1789854560.6935549,11555.46,1089.0,15827.76,22071.329999999998,23967.899999999998,25274.925,27170.504999999997,18987.704999999998,0.0
1789854560.6935945,11543.13,1075.185,15812.324999999999,22049.504999999997,23949.27,25265.43,27171.765,18977.175,0.0
1789854560.6936336,11537.55,1070.5049999999999,15810.885,22094.46,23959.17,25271.235,27168.57,18972.135,0.0
1789854560.6936507,11534.984999999999,1069.155,15810.93,22094.954999999998,23968.485,25275.645,27165.87,18968.985,0.0
1789854560.693669,11534.13,1068.21,15806.07,22075.155,23966.504999999997,25267.995,27166.14,18968.895,0.0
1789854560.6936848,11535.57,1070.28,15807.779999999999,22077.405,23959.8,25267.094999999998,27166.364999999998,18967.995,0.0
1789854560.6937008,11535.93,1067.31,15800.805,22073.04,23953.094999999998,25265.61,27171.135,18970.335,0.0
1789854560.6937418,11535.074999999999,1070.415,15810.119999999999,22078.215,23952.645,25264.53,27166.41,18965.88,0.0
1789854560.6937585,11539.305,1071.36,15809.67,22079.879999999997,23972.445,25266.51,27167.985,18969.93,0.0
1789854560.6937723,11547.9,1083.0149999999999,15819.255,22091.04,23995.079999999998,25287.344999999998,27170.01,18977.13,0.0
1789854560.6937878,11544.345,1078.83,15817.455,22083.975,23975.28,25272.585,27167.489999999998,18973.575,0.0
1789854560.6938016,11533.68,1067.67,15809.31,22076.684999999998,23958.585,25268.489999999998,27164.879999999997,18964.62,0.0
1789854560.693817,11530.619999999999,1063.305,15798.555,22053.735,23943.059999999998,25259.129999999997,27171.36,18962.46,0.0
1789854560.6938305,11543.895,1078.83,15814.529999999999,22073.67,23951.835,25264.53,27171.629999999997,18973.125,0.0
1789854560.6938467,11540.385,1076.355,15815.16,22083.21,23967.809999999998,25271.28,27170.82,18969.255,0.0
1789854560.6938603,11527.47,1058.67,15794.775,22044.735,23938.245,25258.41,27173.61,18958.59,0.0
1789854560.693876,11521.395,1055.745,15795.945,22057.155,23937.21,25247.745,27167.129999999997,18951.704999999998,0.0
1789854560.6938896,11527.56,1061.55,15797.654999999999,22076.91,23960.295,25259.625,27165.78,18956.52,0.0
1789854560.6939065,11523.24,1054.395,15789.285,22051.035,23936.579999999998,25250.535,27171.45,18953.19,0.0
1789854560.6939206,11532.734999999999,1066.23,15801.255,22060.934999999998,23941.079999999998,25263.36,27172.305,18960.255,0.0
1789854560.6939368,11533.185,1064.385,15799.41,22060.53,23941.26,25257.51,27178.649999999998,18962.684999999998,0.0
1789854560.6939502,11515.949999999999,1049.67,15788.699999999999,22061.52,23944.545,25245.315,27167.76,18944.1,0.0
1789854560.6939657,11518.56,1053.27,15790.68,22059.765,23945.129999999997,25246.485,27164.34,18944.64,0.0
1789854560.6939793,11530.395,1064.1599999999999,15796.935,22061.79,23957.28,25255.35,27170.37,18956.52,0.0
1789854560.6939943,11527.785,1060.5149999999999,15791.31,22054.77,23952.059999999998,25255.079999999998,27174.78,18956.79,0.0
1789854560.694008,11524.005,1056.825,15789.105,22058.684999999998,23942.879999999997,25250.219999999998,27173.879999999997,18951.03,0.0
1789854560.6940236,11522.43,1053.045,15781.904999999999,22036.094999999998,23937.39,25250.04,27178.92,18952.155,0.0
1789854560.6940377,11517.66,1047.825,15778.98,22026.285,23946.03,25256.52,27181.485,18949.094999999998,0.0
1789854560.6940536,11511.404999999999,1043.595,15776.414999999999,22040.19,23930.594999999998,25241.355,27179.46,18941.445,0.0
1789854560.6940672,11510.685,1046.7,15783.615,22058.28,23930.19,25239.42,27170.73,18937.35,0.0
1789854560.6940825,11517.029999999999,1052.865,15788.205,22041.809999999998,23924.385,25239.42,27172.485,18945.809999999998,0.0
1789854560.694096,11518.605,1056.645,15793.425,22044.915,23908.815,25234.29,27173.475,18945.405,0.0
1789854560.6941833,11515.095,1050.435,15784.154999999999,22044.735,23913.27,25237.215,27173.25,18941.579999999998,0.0
1789854560.6941988,11503.71,1040.1299999999999,15774.885,22032.585,23914.844999999998,25226.684999999998,27171.629999999997,18930.555,0.0
1789854560.6942153,11510.685,1039.23,15767.46,22003.065,23909.309999999998,25230.51,27181.305,18940.77,0.0
1789854560.694229,11498.535,1032.21,15766.154999999999,22020.165,23931.09,25221.555,27167.535,18924.524999999998,0.0
1789854560.694245,11504.609999999999,1042.56,15779.519999999999,22049.82,23948.055,25231.23,27165.645,18929.969999999998,0.0
1789854560.6942587,11498.58,1035.585,15773.265,22048.379999999997,23931.899999999998,25232.67,27165.645,18923.805,0.0
1789854560.6942747,11501.685,1040.805,15777.404999999999,22052.07,23945.895,25238.114999999998,27165.78,18925.605,0.0
1789854560.694289,11497.859999999999,1037.07,15775.38,22036.41,23935.454999999998,25239.059999999998,27167.805,18920.204999999998,0.0
1789854560.6943064,11519.865,1062.225,15797.34,22049.235,23935.14,25246.26,27177.39,18937.62,0.0
1789854560.6943202,11504.52,1040.5349999999999,15773.984999999999,22038.93,23932.215,25243.11,27179.954999999998,18925.739999999998,0.0
1789854560.6943367,11505.734999999999,1041.615,15780.734999999999,22052.61,23929.649999999998,25241.489999999998,27177.164999999997,18927.899999999998,0.0
1789854560.69435,11511.585,1044.585,15776.955,22039.92,23928.48,25242.21,27179.37,18931.32,0.0
1789854560.694366,11512.395,1047.645,15777.945,22041.315,23933.52,25239.87,27181.53,18931.32,0.0
1789854560.6943796,11513.88,1048.995,15779.835,22036.274999999998,23929.11,25236.855,27183.329999999998,18932.535,0.0
1789854560.6943953,11506.14,1039.635,15770.295,22021.11,23923.89,25232.129999999997,27178.829999999998,18925.335,0.0
1789854560.6944091,11495.744999999999,1030.455,15763.769999999999,22012.92,23904.27,25216.245,27175.68,18913.59,0.0
1789854560.6974292,11495.925,1033.335,15767.279999999999,22018.905,23900.895,25215.66,27168.524999999998,18909.899999999998,0.0
1789854560.6974552,11502.359999999999,1038.0149999999999,15772.095,22028.985,23915.52,25228.485,27174.78,18919.844999999998,0.0
1789854560.7030275,11494.574999999999,1026.81,15761.07,22011.434999999998,23913.495,25226.28,27180.36,18918.36,0.0
1789854560.7030697,11480.895,1012.41,15743.564999999999,21992.219999999998,23894.954999999998,25212.555,27174.87,18903.735,0.0
1789854560.7087035,11485.619999999999,1019.52,15750.9,22014.855,23901.975,25214.265,27172.485,18905.805,0.0
1789854560.7087474,11475.675,1008.5849999999999,15739.289999999999,22009.274999999998,23892.434999999998,25204.68,27172.079999999998,18895.905,0.0
1789854560.711768,11473.56,1005.885,15733.484999999999,21991.95,23885.055,25204.77,27172.17,18895.995,0.0
1789854560.7117963,11474.505,1010.295,15742.619999999999,21997.89,23883.03,25199.145,27171.0,18895.905,0.0
1789854560.7937648,11472.795,1007.1899999999999,15739.74,21987.585,23882.715,25195.545,27170.37,18894.6,0.0
1789854560.7938056,11476.035,1010.8349999999999,15741.494999999999,21982.184999999998,23887.305,25201.754999999997,27171.855,18896.085,0.0
1789854560.7938457,11489.85,1025.955,15753.06,21979.395,23877.315,25212.059999999998,27179.055,18907.02,0.0
1789854560.7938619,11484.314999999999,1021.635,15752.16,21984.795,23869.934999999998,25204.545,27181.305,18901.215,0.0
1789854560.79388,11481.48,1021.05,15756.3,22024.754999999997,23909.129999999997,25206.66,27171.539999999997,18896.535,0.0
1789854560.7938955,11474.46,1013.895,15747.074999999999,21998.16,23882.399999999998,25191.855,27171.675,18888.66,0.0
1789854560.7939134,11471.535,1013.985,15751.529999999999,21992.489999999998,23861.34,25186.635,27171.719999999998,18886.545,0.0
1789854560.7939289,11474.955,1009.035,15735.42,22000.545,23884.92,25187.085,27175.995,18894.915,0.0
1789854560.793946,11459.07,994.41,15724.17,21995.01,23907.465,25182.045,27164.61,18876.51,0.0
1789854560.7939608,11465.414999999999,1007.01,15742.349999999999,21983.895,23921.055,25205.76,27160.289999999997,18875.43,0.0
1789854560.7939785,11470.095,1003.86,15735.51,22013.28,23911.425,25213.68,27173.385,18887.535,0.0
1789854560.7939935,11468.07,1003.86,15737.76,22013.145,23901.93,25208.954999999998,27176.489999999998,18885.51,0.0
1789854560.7940104,11461.14,998.9549999999999,15735.824999999999,21995.055,23888.25,25199.055,27172.98,18876.059999999998,0.0
1789854560.7940252,11470.05,1012.23,15751.71,22014.315,23900.04,25204.094999999998,27171.18,18883.665,0.0
1789854560.7940428,11471.984999999999,1007.4599999999999,15737.039999999999,21987.18,23890.454999999998,25197.795,27178.065,18887.579999999998,0.0
1789854560.794058,11457.494999999999,994.05,15729.3,21972.285,23868.0,25173.18,27170.325,18873.405,0.0
1789854560.7940753,11456.82,991.395,15721.695,21988.89,23879.295,25185.42,27173.16,18875.43,0.0
1789854560.7940896,11448.225,988.02,15722.955,21991.635,23871.735,25177.004999999997,27168.164999999997,18863.91,0.0
1789854560.7941067,11464.154999999999,1004.4449999999999,15736.41,21982.004999999997,23868.585,25184.43,27169.2,18874.8,0.0
1789854560.7941215,11467.35,1005.795,15736.724999999999,21985.11,23867.954999999998,25185.645,27172.664999999997,18876.645,0.0
1789854560.7941384,11459.385,994.635,15726.42,21982.32,23867.01,25176.059999999998,27173.835,18872.684999999998,0.0
1789854560.7941532,11442.24,973.3499999999999,15701.715,21957.344999999998,23865.254999999997,25169.309999999998,27174.914999999997,18859.905,0.0
1789854560.79417,11438.145,972.54,15703.695,21959.28,23864.309999999998,25167.69,27167.715,18853.469999999998,0.0
1789854560.7941847,11443.994999999999,979.38,15708.555,21961.71,23859.765,25168.95,27168.885,18858.105,0.0
1789854560.7942019,11447.955,982.755,15710.805,21957.48,23844.78,25168.094999999998,27169.469999999998,18863.46,0.0
1789854560.7942169,11438.775,973.0799999999999,15697.89,21930.66,23806.844999999998,25152.93,27168.12,18854.28,0.0
1789854560.794234,11443.275,977.985,15704.01,21941.145,23821.245,25156.62,27166.23,18858.735,0.0
1789854560.794249,11433.734999999999,971.055,15703.92,21963.735,23856.75,25155.765,27162.0,18847.934999999998,0.0
1789854560.794324,11414.835,949.905,15686.01,21959.145,23867.64,25147.53,27157.184999999998,18829.934999999998,0.0
1789854560.7943397,11422.755,957.375,15688.035,21949.965,23850.765,25149.6,27163.035,18837.135,0.0
1789854560.7943573,11434.275,969.885,15696.585,21947.535,23845.184999999998,25153.29,27166.86,18844.38,0.0
1789854560.794372,11440.215,978.2099999999999,15704.279999999999,21944.969999999998,23832.405,25146.765,27167.67,18847.934999999998,0.0
1789854560.7943892,11437.335,978.75,15714.224999999999,21968.145,23852.16,25158.239999999998,27162.855,18846.045,0.0
1789854560.7944028,11426.625,960.12,15691.904999999999,21946.995,23853.78,25159.995,27169.559999999998,18840.51,0.0
1789854560.7944188,11432.52,965.115,15689.88,21928.86,23839.29,25159.32,27167.039999999997,18845.235,0.0
1789854560.794484,11423.835,958.005,15685.695,21921.66,23830.739999999998,25152.524999999998,27161.82,18836.145,0.0
1789854560.794503,11406.375,943.245,15678.63,21926.204999999998,23838.57,25140.78,27152.774999999998,18816.84,0.0
1789854560.7945168,11412.855,950.265,15683.58,21942.629999999997,23838.48,25136.1,27156.015,18822.329999999998,0.0
1789854560.7945328,11430.539999999999,968.04,15694.515,21940.02,23839.379999999997,25151.67,27164.52,18839.655,0.0
1789854560.7945464,11424.779999999999,963.81,15697.845,21952.485,23853.735,25157.385,27162.18,18833.355,0.0
1789854560.7946823,11409.48,945.63,15681.06,21944.52,23839.335,25147.395,27165.69,18822.645,0.0
1789854560.7947128,11416.41,950.895,15676.695,21932.46,23823.405,25132.004999999997,27166.454999999998,18827.64,0.0
1789854560.7986712,11420.73,962.55,15692.58,21954.96,23833.125,25137.0,27158.805,18824.489999999998,0.0
1789854560.79871,11433.689999999999,976.5899999999999,15711.119999999999,21961.754999999997,23847.75,25152.57,27162.945,18834.885,0.0
1789854560.805312,11429.01,963.765,15692.22,21930.93,23840.504999999997,25155.36,27175.905,18837.315,0.0
1789854560.8053584,11406.51,943.38,15674.984999999999,21924.405,23823.945,25133.219999999998,27163.71,18814.32,0.0
1789854560.8064024,11404.305,940.905,15671.43,21915.629999999997,23821.605,25125.254999999997,27158.985,18810.54,0.0
1789854560.806438,11416.275,955.035,15683.265,21920.04,23821.829999999998,25134.344999999998,27163.575,18822.465,0.0
1789854560.8116024,11421.675,958.8149999999999,15682.949999999999,21897.675,23801.129999999997,25132.59,27171.27,18827.864999999998,0.0
1789854560.8116374,11411.685,938.8349999999999,15651.314999999999,21858.885,23772.059999999998,25119.135,27174.555,18822.105,0.0
1789854560.8961136,11396.835,930.285,15654.914999999999,21896.145,23798.204999999998,25125.03,27161.055,18807.075,0.0
1789854560.8961573,11388.15,931.86,15674.355,21947.355,23845.77,25122.87,27146.52,18794.07,0.0
1789854560.8961997,11396.789999999999,936.9,15671.115,21947.355,23854.95,25130.34,27153.135,18803.204999999998,0.0
1789854560.896216,11417.895,957.87,15688.125,21946.59,23842.305,25136.415,27161.37,18821.565,0.0
1789854560.8965764,11407.095,945.045,15677.055,21931.02,23825.385,25126.335,27164.34,18815.13,0.0
1789854560.89661,11392.335,931.635,15661.935,21915.405,23811.344999999998,25114.545,27159.03,18799.245,0.0
1789854560.8966424,11403.63,948.42,15682.23,21939.66,23827.23,25125.434999999998,27155.385,18804.195,0.0
1789854560.8966577,11396.564999999999,940.77,15676.38,21928.32,23815.395,25118.01,27158.895,18797.85,0.0
1789854560.8966763,11396.789999999999,931.68,15658.875,21900.555,23803.155,25121.61,27170.46,18805.995,0.0
1789854560.8966913,11403.494999999999,937.305,15662.519999999999,21904.515,23808.239999999998,25135.92,27175.41,18814.184999999998,0.0
1789854560.8967147,11399.085,935.3249999999999,15659.505,21888.225,23791.995,25120.934999999998,27173.835,18804.96,0.0
1789854560.8967288,11395.71,934.9649999999999,15663.644999999999,21904.29,23801.309999999998,25116.03,27166.68,18798.704999999998,0.0
1789854560.8967447,11403.27,945.27,15677.865,21934.44,23822.01,25123.905,27166.68,18804.195,0.0
1789854560.8967583,11398.455,940.0949999999999,15673.005,21926.745,23823.989999999998,25126.29,27170.325,18799.829999999998,0.0
1789854560.8967743,11406.375,944.3249999999999,15672.869999999999,21928.5,23820.795,25138.125,27174.645,18810.18,0.0
1789854560.896788,11405.835,944.64,15673.41,21933.809999999998,23819.94,25136.594999999998,27173.879999999997,18810.045,0.0
1789854560.896804,11408.625,953.91,15688.619999999999,21906.495,23824.62,25131.735,27174.51,18808.559999999998,0.0
1789854560.8968174,11397.51,937.305,15667.785,21904.29,23818.5,25123.635,27175.274999999998,18799.2,0.0
1789854560.8968332,11407.455,948.105,15673.365,21923.01,23818.545,25127.774999999998,27176.579999999998,18807.434999999998,0.0
1789854560.8968468,11408.67,952.875,15682.095,21924.18,23817.375,25128.45,27175.95,18805.68,0.0
1789854560.8968625,11401.154999999999,942.66,15667.695,21897.18,23809.86,25125.704999999998,27179.864999999998,18800.01,0.0
1789854560.896876,11408.49,951.255,15676.515,21910.05,23823.315,25137.27,27178.469999999998,18806.579999999998,0.0
1789854560.8968923,11411.64,953.8199999999999,15683.67,21927.735,23826.329999999998,25137.989999999998,27179.235,18808.559999999998,0.0
1789854560.8969057,11411.775,954.5849999999999,15684.21,21936.6,23820.03,25130.204999999998,27181.53,18808.605,0.0
1789854560.8969216,11407.68,947.385,15671.744999999999,21918.375,23815.62,25128.495,27186.39,18806.355,0.0
1789854560.8970082,11389.41,931.635,15660.63,21908.385,23806.575,25120.844999999998,27177.93,18786.059999999998,0.0
1789854560.8970318,11391.705,935.28,15664.32,21905.954999999998,23802.75,25120.305,27178.379999999997,18786.69,0.0
1789854560.8970456,11405.97,951.93,15680.385,21917.969999999998,23814.045,25130.204999999998,27180.719999999998,18799.559999999998,0.0
1789854560.897062,11408.58,955.26,15683.805,21922.469999999998,23834.204999999998,25136.37,27184.32,18802.485,0.0
1789854560.897076,11407.68,949.7249999999999,15670.935,21918.51,23821.785,25135.559999999998,27188.954999999998,18802.89,0.0
1789854560.897092,11399.805,943.425,15666.48,21926.925,23812.829999999998,25126.559999999998,27186.524999999998,18794.43,0.0
1789854560.8971057,11413.529999999999,955.8449999999999,15674.805,21914.82,23808.285,25134.795,27192.375,18807.03,0.0
1789854560.8971276,11415.015,955.3499999999999,15670.935,21899.204999999998,23793.03,25135.559999999998,27196.695,18809.01,0.0
1789854560.8971415,11412.585,955.62,15674.894999999999,21898.26,23796.09,25124.895,27192.96,18806.175,0.0
1789854560.897157,11395.98,937.035,15663.33,21917.655,23814.36,25114.364999999998,27185.219999999998,18792.495,0.0
1789854560.8971708,11376.135,920.295,15657.255,21922.559999999998,23816.835,25104.51,27176.175,18770.219999999998,0.0
1789854560.8971865,11387.295,932.0849999999999,15664.275,21913.605,23809.77,25112.295,27178.11,18775.98,0.0
1789854560.8972,11403.314999999999,952.38,15683.49,21927.105,23815.71,25126.379999999997,27179.414999999997,18789.614999999998,0.0
1789854560.897216,11401.064999999999,945.5849999999999,15671.07,21915.629999999997,23824.934999999998,25131.87,27191.07,18792.719999999998,0.0
1789854560.89723,11392.335,934.8299999999999,15659.685,21904.649999999998,23812.379999999997,25122.195,27190.395,18785.114999999998,0.0
1789854560.8972456,11403.99,950.265,15676.019999999999,21915.675,23798.024999999998,25121.295,27194.445,18795.465,0.0
1789854560.897259,11394.855,936.405,15659.055,21896.235,23788.305,25111.665,27199.079999999998,18788.895,0.0
1789854560.903138,11385.9,928.8449999999999,15653.205,21897.719999999998,23802.165,25108.965,27191.969999999998,18780.93,0.0
1789854560.903186,11387.609999999999,933.165,15655.904999999999,21907.934999999998,23824.71,25121.385,27188.235,18780.57,0.0
1789854560.9032283,11397.105,941.67,15663.824999999999,21911.67,23823.225,25130.024999999998,27192.285,18789.75,0.0
1789854560.9032464,11390.535,938.25,15666.57,21913.559999999998,23814.945,25121.024999999998,27185.579999999998,18781.739999999998,0.0
1789854560.9071064,11393.01,935.055,15656.355,21898.71,23810.309999999998,25120.26,27194.895,18786.645,0.0
1789854560.907157,11389.994999999999,931.41,15650.324999999999,21891.645,23801.85,25116.3,27198.18,18785.295,0.0
1789854560.90987,11381.085,925.0649999999999,15645.015,21878.594999999998,23789.969999999998,25106.625,27195.12,18775.17,0.0
1789854560.9099007,11386.98,935.64,15659.73,21883.635,23787.719999999998,25105.14,27189.315,18774.63,0.0
1789854560.916364,11399.535,949.4549999999999,15673.59,21907.844999999998,23798.25,25116.795,27193.364999999998,18785.52,0.0
1789854560.9164033,11399.31,942.93,15660.72,21898.754999999997,23797.62,25118.82,27201.375,18788.985,0.0
1789854560.9970193,11389.994999999999,936.045,15661.529999999999,21907.98,23804.415,25114.995,27194.309999999998,18777.015,0.0
1789854560.997048,11380.23,934.9649999999999,15657.705,21904.875,23793.93,25091.055,27173.114999999998,18757.35,0.0
1789854560.9970806,11400.21,951.165,15672.33,21916.35,23805.045,25110.18,27196.695,18782.594999999998,0.0
1789854560.9970927,11396.205,941.985,15665.445,21913.785,23810.355,25132.635,27209.61,18784.305,0.0
1789854560.997106,11382.21,926.28,15650.01,21879.45,23811.434999999998,25130.024999999998,27208.71,18772.11,0.0
1789854560.9971173,11384.91,926.505,15646.5,21857.85,23798.204999999998,25120.395,27211.454999999998,18775.079999999998,0.0
1789854560.99713,11395.26,933.7049999999999,15646.23,21876.75,23807.7,25130.34,27212.94,18784.17,0.0
1789854560.997141,11398.77,941.985,15657.119999999999,21896.73,23801.895,25123.41,27212.085,18784.755,0.0
1789854560.9971538,11393.46,941.355,15661.664999999999,21904.469999999998,23798.25,25112.024999999998,27207.765,18777.015,0.0
1789854560.9971652,11374.605,924.7049999999999,15653.744999999999,21899.835,23790.149999999998,25099.92,27202.32,18759.735,0.0
1789854560.9971776,11366.46,914.985,15647.265,21899.024999999998,23789.16,25104.329999999998,27199.485,18753.84,0.0
1789854560.9971886,11376.81,921.645,15642.945,21894.524999999998,23789.565,25107.795,27204.885,18763.469999999998,0.0
1789854560.9972014,11400.84,952.8299999999999,15671.88,21901.274999999998,23808.735,25121.925,27208.44,18779.535,0.0
1789854560.9972124,11392.199999999999,945.045,15671.88,21899.204999999998,23815.485,25113.87,27205.425,18772.335,0.0
1789854560.9972296,11376.765,923.04,15646.185,21884.265,23797.53,25109.504999999997,27209.565,18762.21,0.0
1789854560.997242,11382.795,927.36,15644.654999999999,21888.809999999998,23782.454999999998,25104.285,27212.129999999997,18767.745,0.0
1789854560.9972548,11399.445,944.37,15654.644999999999,21881.385,23777.37,25117.155,27218.61,18782.73,0.0
1789854560.9972658,11396.52,942.0749999999999,15654.195,21863.385,23757.075,25104.825,27221.355,18778.41,0.0
1789854560.997278,11393.505,945.18,15666.84,21912.524999999998,23812.11,25120.17,27210.059999999998,18772.875,0.0
1789854560.9972887,11380.904999999999,934.02,15666.164999999999,21939.434999999998,23838.344999999998,25121.7,27205.02,18761.805,0.0
1789854560.997301,11375.505,923.895,15644.789999999999,21898.934999999998,23813.684999999998,25109.91,27211.95,18757.71,0.0
1789854560.9973116,11382.029999999999,929.4749999999999,15646.275,21894.165,23807.655,25109.864999999998,27213.434999999998,18762.795,0.0
1789854560.9973245,11393.73,942.9749999999999,15662.789999999999,21908.52,23818.86,25124.129999999997,27216.989999999998,18773.91,0.0
1789854560.9973352,11387.34,938.16,15660.135,21903.3,23807.61,25115.76,27216.765,18766.125,0.0
1789854560.9973476,11396.609999999999,946.98,15668.369999999999,21911.04,23811.075,25118.46,27221.985,18773.954999999998,0.0
1789854560.9973583,11382.615,930.51,15653.25,21897.18,23802.704999999998,25109.73,27223.695,18762.66,0.0
1789854560.9973712,11383.47,933.8399999999999,15657.525,21900.915,23800.995,25110.09,27219.465,18760.905,0.0
1789854560.997382,11394.404999999999,946.53,15668.685,21908.52,23806.215,25118.73,27218.925,18769.815,0.0
1789854560.997395,11384.1,928.4399999999999,15645.105,21879.629999999997,23791.364999999998,25111.98,27230.085,18765.63,0.0
1789854560.9974115,11377.035,926.64,15647.984999999999,21887.82,23802.075,25109.774999999998,27218.52,18754.335,0.0
1789854560.997424,11387.475,942.75,15669.945,21912.93,23811.524999999998,25112.879999999997,27214.965,18760.635,0.0
1789854560.997435,11389.05,938.43,15658.244999999999,21893.535,23796.629999999997,25105.815,27219.825,18763.11,0.0
1789854560.9974475,11395.08,941.535,15659.955,21894.03,23804.235,25118.37,27225.675,18773.01,0.0
1789854560.9974582,11390.31,937.17,15654.869999999999,21890.385,23809.094999999998,25117.379999999997,27227.745,18769.815,0.0
1789854560.9974706,11386.845,938.925,15662.205,21897.585,23796.36,25112.925,27225.809999999998,18765.0,0.0
1789854560.9974813,11380.365,926.865,15643.125,21869.19,23765.76,25100.82,27229.86,18761.445,0.0
1789854560.9974935,11388.869999999999,934.785,15647.939999999999,21869.864999999998,23762.16,25103.655,27228.51,18767.204999999998,0.0
1789854560.9975045,11375.46,923.895,15644.385,21871.17,23753.114999999998,25091.145,27222.254999999997,18752.219999999998,0.0
1789854560.9975166,11374.289999999999,920.2049999999999,15635.295,21870.54,23771.969999999998,25091.325,27221.219999999998,18752.265,0.0
1789854560.9975274,11381.58,927.5849999999999,15637.41,21864.6,23809.725,25103.295,27223.245,18759.059999999998,0.0
1789854561.0026813,11373.57,922.545,15643.26,21860.684999999998,23809.05,25102.215,27225.495,18750.51,0.0
1789854561.002714,11384.234999999999,939.1949999999999,15664.949999999999,21890.969999999998,23815.62,25107.075,27218.25,18756.585,0.0
1789854561.0027463,11382.255,933.03,15655.994999999999,21892.77,23806.395,25109.73,27225.315,18758.475,0.0
1789854561.00276,11365.335,914.13,15636.779999999999,21890.969999999998,23787.405,25098.075,27224.01,18743.355,0.0
1789854561.0074105,11371.859999999999,924.255,15651.0,21885.39,23775.165,25095.735,27226.395,18745.335,0.0
1789854561.0074496,11376.27,928.89,15648.119999999999,21871.71,23765.805,25089.795,27224.414999999997,18747.855,0.0
1789854561.0114567,11376.494999999999,926.4599999999999,15639.705,21869.46,23781.87,25090.02,27226.17,18750.51,0.0
1789854561.0114925,11380.095,931.05,15648.255,21883.05,23791.995,25099.785,27232.11,18756.045,0.0
1789854561.01527,11393.234999999999,944.9549999999999,15662.115,21897.585,23800.274999999998,25107.84,27238.545,18766.844999999998,0.0
1789854561.0153131,11380.32,931.0949999999999,15648.66,21881.969999999998,23788.215,25088.67,27233.01,18751.68,0.0
1789854561.0989785,11374.92,923.355,15641.91,21876.075,23787.18,25102.079999999998,27234.719999999998,18749.295,0.0
1789854561.0990126,11378.88,930.51,15652.935,21900.239999999998,23818.635,25130.655,27235.125,18752.489999999998,0.0
1789854561.0990472,11381.265,932.76,15655.545,21902.805,23808.329999999998,25117.739999999998,27236.655,18755.415,0.0
1789854561.0990622,11373.48,925.56,15647.939999999999,21891.915,23804.82,25109.145,27234.27,18747.27,0.0
1789854561.0991387,11366.865,919.035,15641.279999999999,21883.454999999998,23791.59,25098.57,27229.77,18738.045,0.0
1789854561.0991552,11370.51,923.355,15644.88,21883.995,23796.405,25096.32,27229.004999999997,18741.69,0.0
1789854561.0991743,11364.21,918.855,15639.885,21871.035,23785.02,25084.53,27230.219999999998,18736.38,0.0
1789854561.099188,11372.085,924.2099999999999,15645.15,21870.45,23778.855,25093.079999999998,27231.84,18744.255,0.0
1789854561.099204,11372.49,922.4549999999999,15638.939999999999,21870.765,23765.715,25098.93,27235.575,18742.77,0.0
1789854561.0992181,11362.185,914.67,15633.494999999999,21859.02,23756.535,25087.41,27230.805,18731.61,0.0
1789854561.0992343,11368.484999999999,922.635,15643.17,21865.77,23782.41,25097.085,27229.23,18737.28,0.0
1789854561.099248,11372.13,927.5849999999999,15648.57,21888.629999999997,23796.405,25097.445,27233.82,18740.835,0.0
1789854561.099264,11375.91,930.915,15650.055,21900.555,23797.079999999998,25091.594999999998,27236.925,18742.23,0.0
1789854561.0992777,11357.64,909.495,15631.199999999999,21870.495,23781.51,25087.815,27234.945,18728.1,0.0
1789854561.099294,11370.51,921.915,15636.42,21876.885,23794.829999999998,25097.489999999998,27237.42,18740.07,0.0
1789854561.0993073,11377.26,926.1899999999999,15634.8,21868.695,23787.09,25094.16,27244.26,18746.235,0.0
1789854561.0993235,11367.449999999999,918.27,15632.775,21868.245,23782.635,25094.835,27242.774999999998,18734.985,0.0
1789854561.099337,11352.779999999999,902.115,15617.43,21851.73,23769.18,25085.385,27240.344999999998,18721.62,0.0
1789854561.0993528,11352.285,906.5699999999999,15628.635,21863.925,23769.36,25081.2,27232.335,18719.505,0.0
1789854561.0993671,11361.555,918.225,15641.01,21870.719999999998,23769.495,25084.26,27233.01,18727.965,0.0
1789854561.099383,11352.33,903.4649999999999,15620.175,21841.155,23746.32,25068.285,27238.184999999998,18721.62,0.0
1789854561.0993967,11348.775,900.675,15617.205,21837.96,23744.565,25067.25,27234.0,18716.805,0.0
1789854561.099413,11356.02,908.01,15623.595,21843.585,23759.01,25073.1,27233.684999999998,18724.05,0.0
1789854561.0994272,11342.97,895.77,15613.154999999999,21831.614999999998,23743.754999999997,25059.285,27227.789999999997,18712.485,0.0
1789854561.0994468,11351.97,906.2099999999999,15623.73,21847.14,23757.21,25072.335,27230.445,18720.09,0.0
1789854561.09946,11347.02,898.515,15614.775,21844.754999999997,23755.545,25072.065,27236.024999999998,18716.895,0.0
1789854561.0994768,11353.41,907.875,15629.4,21852.27,23747.129999999997,25076.52,27235.395,18720.585,0.0
1789854561.0994904,11338.47,893.9699999999999,15614.505,21838.905,23745.42,25065.945,27233.055,18704.969999999998,0.0
1789854561.099506,11337.57,888.66,15604.244999999999,21859.11,23771.655,25067.295,27232.785,18704.969999999998,0.0
1789854561.0995195,11359.484999999999,912.3299999999999,15625.17,21874.5,23794.649999999998,25090.11,27241.245,18724.005,0.0
1789854561.0995347,11364.164999999999,925.605,15649.605,21881.204999999998,23786.864999999998,25083.405,27240.975,18724.905,0.0
1789854561.0995483,11351.744999999999,905.9399999999999,15626.744999999999,21855.059999999998,23770.17,25074.315,27246.78,18718.155,0.0
1789854561.0995643,11359.845,913.635,15629.625,21860.055,23787.09,25091.37,27246.6,18723.6,0.0
1789854561.0995781,11351.699999999999,904.3199999999999,15619.455,21843.135,23763.195,25077.645,27245.43,18713.7,0.0
1789854561.099594,11361.465,915.3,15629.49,21859.335,23767.245,25090.245,27247.68,18723.6,0.0
1789854561.0996072,11360.52,915.885,15632.324999999999,21864.059999999998,23781.105,25094.07,27249.03,18724.635,0.0
1789854561.0996232,11357.01,909.4499999999999,15625.394999999999,21854.655,23771.835,25082.91,27250.965,18722.88,0.0
1789854561.0996363,11349.675,903.9599999999999,15618.869999999999,21836.61,23754.78,25068.645,27249.93,18714.6,0.0
1789854561.0996523,11358.765,914.9399999999999,15632.099999999999,21848.85,23756.895,25080.885,27250.02,18722.745,0.0
1789854561.0996656,11355.21,915.5699999999999,15639.93,21872.7,23769.899999999998,25094.204999999998,27244.71,18714.555,0.0
1789854561.0996819,11338.965,899.9549999999999,15630.705,21868.785,23767.02,25083.36,27244.305,18700.29,0.0
1789854561.0996952,11348.46,901.755,15620.22,21855.015,23752.125,25062.614999999998,27254.475,18713.385,0.0
1789854561.1015203,11364.39,915.795,15619.59,21848.67,23779.62,25086.555,27252.18,18723.555,0.0
1789854561.1015465,11345.22,907.11,15610.32,21830.76,23753.745,25064.82,27224.325,18696.78,0.0
1789854561.1055489,11342.835,903.51,15615.675,21831.84,23758.11,25066.62,27241.2,18703.755,0.0
1789854561.1055856,11357.055,915.66,15630.119999999999,21863.295,23768.415,25081.02,27253.079999999998,18718.155,0.0
1789854561.1093323,11349.18,907.8299999999999,15628.41,21853.215,23755.41,25070.355,27252.629999999997,18708.795,0.0
1789854561.1093528,11344.949999999999,900.9449999999999,15615.18,21847.77,23753.79,25069.094999999998,27251.73,18706.545,0.0
1789854561.1134596,11343.105,901.8,15617.474999999999,21857.085,23763.735,25070.625,27249.434999999998,18704.295,0.0
1789854561.113502,11341.755,900.81,15617.789999999999,21850.29,23753.969999999998,25064.1,27248.219999999998,18700.739999999998,0.0
1789854561.208339,11346.795,901.98,15613.515,21838.995,23751.27,25070.309999999998,27253.395,18705.69,0.0
1789854561.2083712,11357.685,915.975,15629.894999999999,21859.649999999998,23773.32,25089.93,27255.239999999998,18714.645,0.0
1789854561.2084064,11359.98,918.405,15629.984999999999,21857.355,23775.704999999998,25091.774999999998,27261.405,18716.805,0.0
1789854561.2084196,11346.48,903.3299999999999,15614.55,21837.915,23756.445,25074.495,27258.704999999998,18704.34,0.0
1789854561.2084336,11346.57,901.98,15611.805,21829.995,23743.53,25065.585,27253.485,18702.36,0.0
1789854561.2084444,11357.234999999999,914.49,15625.619999999999,21836.61,23746.95,25069.05,27251.594999999998,18711.045,0.0
1789854561.2084577,11354.085,912.06,15625.394999999999,21838.545,23748.66,25075.44,27257.625,18710.73,0.0
1789854561.2084694,11340.81,897.93,15611.67,21836.7,23752.35,25068.285,27255.69,18699.704999999998,0.0
1789854561.2086933,11347.92,902.3399999999999,15613.109999999999,21839.219999999998,23756.85,25070.94,27258.075,18707.805,0.0
1789854561.2087183,11338.109999999999,897.48,15614.099999999999,21839.265,23743.395,25064.73,27255.735,18694.17,0.0
1789854561.2087436,11344.455,903.87,15615.81,21823.92,23740.335,25072.559999999998,27256.23,18699.39,0.0
1789854561.2087553,11347.695,907.155,15619.904999999999,21852.899999999998,23781.735,25086.329999999998,27256.05,18705.51,0.0
1789854561.2087717,11344.185,905.0849999999999,15621.48,21855.51,23790.645,25073.01,27253.844999999998,18700.965,0.0
1789854561.208789,11338.56,896.76,15609.195,21838.32,23759.55,25062.48,27252.09,18696.96,0.0
1789854561.2088113,11324.25,881.01,15597.9,21836.114999999998,23739.165,25050.51,27247.454999999998,18682.155,0.0
1789854561.2088246,11330.775,891.225,15609.33,21832.065,23730.975,25051.815,27244.53,18685.215,0.0
1789854561.2088368,11322.81,878.7149999999999,15588.945,21798.315,23705.28,25038.495,27249.21,18680.76,0.0
1789854561.2088473,11316.734999999999,873.675,15584.67,21803.535,23714.055,25042.59,27244.844999999998,18675.63,0.0
1789854561.208859,11318.58,880.515,15601.59,21832.559999999998,23742.27,25045.02,27237.105,18676.485,0.0
1789854561.2088692,11317.41,874.5749999999999,15589.664999999999,21817.079999999998,23740.155,25047.945,27240.885,18676.62,0.0
1789854561.2088811,11307.105,861.7049999999999,15569.279999999999,21801.149999999998,23729.129999999997,25034.805,27236.295,18666.27,0.0
1789854561.2088914,11313.404999999999,877.3199999999999,15598.71,21834.945,23752.35,25046.91,27225.855,18665.01,0.0
1789854561.2089033,11315.475,878.13,15601.769999999999,21838.23,23747.85,25039.395,27231.885,18669.059999999998,0.0
1789854561.208914,11312.91,869.5799999999999,15583.455,21810.87,23727.059999999998,25039.395,27238.364999999998,18669.69,0.0
1789854561.208926,11312.595,869.4,15580.89,21803.399999999998,23725.485,25036.875,27233.82,18667.98,0.0
1789854561.208936,11311.83,871.785,15584.984999999999,21810.195,23726.745,25034.355,27229.59,18664.739999999998,0.0
