timestamp,emg_0,emg_1,emg_2,emg_3,emg_4,emg_5,emg_6,emg_7,marker
1789862285.4999833,18500.985,33453.36,56487.689999999995,40192.064999999995,31521.149999999998,21742.245,7172.054999999999,-721.62,0.0
1789862285.499997,18506.655,33454.08,56463.659999999996,40157.64,31534.379999999997,21736.844999999998,7152.12,-722.925,0.0
1789862285.5056553,18510.48,33461.325,56503.935,40241.385,31496.625,21718.035,7123.455,-721.755,0.0
1789862285.50568,18504.855,33464.52,56520.585,40251.555,31497.074999999997,21727.395,7133.759999999999,-727.56,0.0
1789862285.5068755,18506.295,33467.22,56507.31,40229.1,31502.385,21726.45,7125.12,-729.765,0.0
1789862285.5068903,18520.829999999998,33492.104999999996,56519.325,40234.545,31514.309999999998,21732.344999999998,7035.12,-727.29,0.0
1789862285.510512,18514.98,33447.869999999995,56503.17,40241.385,31515.614999999998,21734.28,6960.915,-725.5799999999999,0.0
1789862285.5105257,18511.559999999998,33445.89,56500.65,40211.46,31509.0,21731.625,7069.545,-718.38,0.0
1789862285.5146239,18521.594999999998,33478.38,56463.165,40160.52,31498.02,21726.809999999998,7219.17,-708.75,0.0
1789862285.5146396,18523.53,33476.985,56468.025,40171.635,31495.454999999998,21714.704999999998,7198.65,-704.79,0.0
1789862285.5171463,18523.71,33492.33,56497.994999999995,40183.064999999995,31518.495,21744.855,7117.74,-716.5799999999999,0.0
1789862285.5171676,18521.055,33483.104999999996,56477.295,40187.205,31526.504999999997,21766.68,7109.775,-719.055,0.0
1789862285.5217135,18522.045,33478.47,56495.43,40238.595,31514.309999999998,21699.719999999998,7147.125,-711.0899999999999,0.0
1789862285.5217822,18509.219999999998,33470.549999999996,56512.619999999995,40264.604999999996,31522.949999999997,21729.465,7151.04,-725.625,0.0
1789862285.526114,18508.184999999998,33464.385,56506.005,40243.229999999996,31531.364999999998,21760.02,7146.63,-725.805,0.0
1789862285.5261424,18510.434999999998,33466.185,56501.775,40234.229999999996,31526.73,21743.504999999997,7110.45,-727.605,0.0
1789862285.5306075,18520.469999999998,33483.33,56519.1,40246.02,31540.004999999997,21751.469999999998,7015.1849999999995,-730.0799999999999,0.0
1789862285.530633,18531.63,33500.25,56528.64,40256.145,31553.594999999998,21760.605,6935.58,-732.105,0.0
1789862285.5339038,18529.695,33496.244999999995,56532.104999999996,40273.244999999995,31564.934999999998,21757.68,6977.88,-741.24,0.0
1789862285.5339217,18501.795,33454.89,56524.005,40265.235,31547.879999999997,21742.785,7004.295,-761.22,0.0
1789862285.5442832,18509.985,33460.02,56555.595,40261.68,31545.18,21721.68,6975.36,-744.3,0.0
1789862285.5443072,18525.465,33496.74,56518.784999999996,40222.619999999995,31537.35,21724.605,7173.99,-708.39,0.0
1789862285.544331,18503.1,33473.159999999996,56481.795,40184.82,31557.059999999998,21767.805,7310.969999999999,-706.4549999999999,0.0
1789862285.5443408,18502.38,33450.345,56470.95,40197.555,31482.585,21740.535,7237.215,-713.2049999999999,0.0
1789862285.5453928,18504.0,33454.799999999996,56463.345,40204.979999999996,31490.414999999997,21725.055,7159.094999999999,-724.86,0.0
1789862285.5454233,18507.825,33462.45,56495.025,40219.695,31503.96,21727.8,7115.445,-727.0649999999999,0.0
1789862285.5497448,18515.385,33462.854999999996,56504.384999999995,40231.979999999996,31518.855,21738.059999999998,7094.384999999999,-721.98,0.0
1789862285.5497675,18513.989999999998,33465.195,56490.255,40222.71,31522.094999999998,21739.05,7116.57,-723.4649999999999,0.0
1789862285.5533056,18513.719999999998,33467.31,56528.505,40241.564999999995,31534.02,21753.27,7161.389999999999,-721.665,0.0
1789862285.5533235,18507.87,33465.869999999995,56539.439999999995,40241.7,31526.28,21739.905,7123.365,-727.155,0.0
1789862285.5599399,18515.969999999998,33485.58,56480.22,40224.78,31522.32,21734.774999999998,7113.24,-725.895,0.0
1789862285.5599532,18517.68,33483.735,56482.784999999996,40218.345,31523.67,21737.835,7118.19,-728.28,0.0
1789862285.5606883,18525.42,33488.46,56510.954999999994,40226.67,31529.61,21740.985,7109.235,-719.55,0.0
1789862285.5607,18517.59,33475.815,56507.265,40228.02,31534.559999999998,21746.7,7111.62,-722.88,0.0
1789862285.565904,18508.41,33462.494999999995,56484.405,40215.825,31538.114999999998,21751.469999999998,7140.554999999999,-723.78,0.0
1789862285.5659187,18510.344999999998,33474.825,56482.604999999996,40209.345,31526.55,21744.495,7137.675,-723.4649999999999,0.0
1789862285.5691345,18520.695,33476.895,56483.82,40212.09,31513.274999999998,21733.649999999998,7146.134999999999,-716.805,0.0
1789862285.5691507,18506.295,33461.055,56527.11,40246.47,31538.745,21743.415,7130.384999999999,-729.18,0.0
1789862285.5762062,18506.52,33473.475,56586.78,40257.405,31526.91,21730.23,7107.12,-732.4649999999999,0.0
1789862285.576229,18520.02,33483.51,56540.295,40229.82,31526.684999999998,21732.84,7070.67,-723.735,0.0
1789862285.5790884,18525.329999999998,33489.18,56482.47,40232.835,31536.719999999998,21725.055,7036.11,-724.635,0.0
1789862285.579105,18521.505,33493.635,56491.965,40218.03,31521.239999999998,21714.21,7085.745,-722.88,0.0
1789862285.5811613,18514.62,33474.555,56491.74,40221.135,31570.02,21761.594999999998,7162.11,-720.045,0.0
1789862285.5811772,18510.704999999998,33457.905,56486.475,40237.02,31512.195,21725.46,7144.38,-719.28,0.0
1789862285.587484,18504.27,33450.21,56465.954999999994,40218.479999999996,31503.239999999998,21732.3,7128.179999999999,-726.66,0.0
1789862285.5875025,18519.255,33481.89,56481.119999999995,40225.455,31528.98,21746.024999999998,7119.224999999999,-721.2149999999999,0.0
1789862285.5891073,18524.969999999998,33484.994999999995,56495.88,40238.775,31531.68,21736.395,7107.48,-716.985,0.0
1789862285.589124,18505.8,33470.19,56494.034999999996,40236.57,31527.945,21735.585,7063.29,-735.165,0.0
1789862285.594686,18507.375,33490.485,56512.575,40221.585,31510.125,21721.77,7014.6449999999995,-746.73,0.0
1789862285.5947108,18506.835,33481.979999999996,56551.77,40249.305,31529.114999999998,21731.805,7031.5199999999995,-744.3,0.0
1789862285.5979464,18511.02,33469.02,56543.265,40260.465,31537.215,21740.399999999998,7168.815,-719.37,0.0
1789862285.5979688,18516.105,33466.005,56491.424999999996,40224.555,31513.32,21726.54,7154.46,-715.005,0.0
1789862285.601296,18524.88,33499.71,56486.34,40209.659999999996,31523.085,21733.245,7089.12,-719.505,0.0
1789862285.6013186,18526.05,33518.34,56517.165,40224.6,31531.545,21727.71,7104.285,-723.4649999999999,0.0
1789862285.6060953,18522.045,33498.27,56522.475,40245.119999999995,31526.37,21727.934999999998,7136.82,-722.79,0.0
1789862285.6061203,18511.29,33472.799999999996,56504.97,40236.119999999995,31533.344999999998,21747.285,7107.165,-725.7149999999999,0.0
1789862285.609586,18513.045,33474.015,56465.235,40217.13,31546.35,21761.055,7081.469999999999,-727.8299999999999,0.0
1789862285.6096096,18514.575,33471.54,56463.165,40241.61,31532.085,21764.835,7111.9349999999995,-728.01,0.0
1789862285.613873,18526.184999999998,33482.835,56514.195,40225.545,31535.91,21752.594999999998,7159.32,-709.6949999999999,0.0
1789862285.6138954,18514.53,33480.09,56566.395,40222.979999999996,31506.57,21722.265,7156.035,-716.805,0.0
1789862285.6172414,18504.405,33468.84,56521.53,40234.905,31525.335,21743.64,7124.67,-728.01,0.0
1789862285.6172657,18519.66,33491.025,56522.61,40237.92,31526.28,21729.059999999998,7119.45,-718.65,0.0
1789862285.6211207,18518.175,33491.924999999996,56587.005,40263.57,31540.184999999998,21740.309999999998,7134.48,-717.12,0.0
1789862285.621132,18504.719999999998,33468.57,56542.275,40247.415,31530.059999999998,21738.69,7135.605,-723.4649999999999,0.0
1789862285.6260839,18514.035,33470.415,56495.97,40237.424999999996,31530.735,21738.105,7087.005,-723.15,0.0
1789862285.626106,18513.27,33460.244999999995,56470.095,40234.095,31533.75,21734.415,7009.0199999999995,-730.395,0.0
1789862285.6299453,18521.01,33467.04,56469.689999999995,40242.869999999995,31545.855,21743.19,6935.13,-727.8299999999999,0.0
1789862285.6299715,18521.82,33485.085,56449.619999999995,40210.244999999995,31529.879999999997,21738.42,7003.889999999999,-730.8,0.0
1789862285.6339245,18525.825,33492.78,56470.59,40197.689999999995,31532.67,21753.809999999998,7145.054999999999,-722.0699999999999,0.0
1789862285.633943,18520.559999999998,33474.42,56516.31,40202.055,31535.46,21758.445,7209.495,-711.72,0.0
1789862285.6380427,18511.11,33471.405,56517.615,40173.975,31519.395,21738.645,7151.445,-711.18,0.0
1789862285.6380763,18501.704999999998,33477.345,56472.704999999994,40185.36,31486.635,21714.434999999998,7153.38,-720.54,0.0
1789862285.64196,18509.13,33487.695,56506.68,40224.645,31517.954999999998,21731.535,7156.035,-724.8149999999999,0.0
1789862285.6419873,18519.03,33495.165,56563.65,40253.805,31536.045,21742.875,7092.315,-722.115,0.0
1789862285.6452909,18501.704999999998,33466.77,56536.335,40254.21,31527.315,21727.71,7106.175,-728.1899999999999,0.0
1789862285.6453085,18501.48,33462.225,56458.395,40247.46,31512.105,21706.695,7143.48,-727.1999999999999,0.0
1789862285.6519573,18512.19,33480.0,56471.49,40260.195,31557.195,21740.129999999997,7127.19,-724.005,0.0
1789862285.6519802,18514.755,33482.25,56495.97,40264.56,31576.23,21776.445,7112.655,-724.86,0.0
1789862285.654492,18505.934999999998,33483.96,56548.53,40254.659999999996,31500.539999999997,21737.52,7126.92,-728.1899999999999,0.0
1789862285.6545165,18505.934999999998,33476.895,56542.409999999996,40257.36,31525.335,21728.204999999998,7139.7,-720.405,0.0
1789862285.6578305,18511.965,33477.255,56487.509999999995,40212.405,31530.285,21742.335,7139.61,-716.22,0.0
1789862285.6578543,18510.03,33482.88,56488.365,40208.76,31531.454999999998,21743.82,7119.855,-724.68,0.0
1789862285.661865,18513.63,33492.555,56510.145,40266.494999999995,31525.649999999998,21729.87,7102.755,-722.97,0.0
1789862285.6618905,18518.13,33489.945,56517.03,40248.585,31499.91,21710.114999999998,7011.719999999999,-725.9399999999999,0.0
1789862285.6735067,18521.19,33483.869999999995,56533.68,40264.604999999996,31532.985,21723.795,6975.99,-729.495,0.0
1789862285.6735356,18510.03,33472.935,56544.975,40281.525,31540.23,21733.155,7088.13,-731.16,0.0
1789862285.6735787,18496.485,33452.19,56489.534999999996,40239.54,31511.655,21722.399999999998,7178.4,-727.875,0.0
1789862285.6735933,18504.18,33464.34,56487.96,40240.71,31531.094999999998,21748.004999999997,7130.969999999999,-726.525,0.0
1789862285.673614,18516.059999999998,33487.83,56493.405,40227.705,31526.145,21736.844999999998,7056.99,-725.355,0.0
1789862285.6736276,18521.774999999998,33485.58,56494.53,40243.905,31528.079999999998,21723.344999999998,7031.025,-717.7049999999999,0.0
1789862285.67786,18502.695,33445.215,56453.759999999995,40233.96,31513.995,21716.19,7108.155,-721.485,0.0
1789862285.677878,18494.19,33442.965,56427.479999999996,40221.135,31520.655,21731.579999999998,7179.705,-725.895,0.0
1789862285.6814241,18503.594999999998,33476.49,56547.945,40257.674999999996,31537.35,21737.34,7127.73,-726.525,0.0
1789862285.6814413,18503.37,33478.47,56568.825,40266.135,31533.03,21724.739999999998,7106.13,-728.505,0.0
1789862285.6851332,18512.594999999998,33493.095,56446.02,40209.479999999996,31524.885,21727.485,7144.065,-721.755,0.0
1789862285.685148,18501.93,33484.86,56458.71,40214.655,31535.37,21744.045,7156.035,-727.425,0.0
1789862285.6896484,18511.335,33489.135,56529.405,40235.625,31527.27,21736.035,7129.349999999999,-723.87,0.0
1789862285.68966,18515.475,33484.455,56521.71,40233.96,31520.969999999998,21729.915,7119.855,-719.775,0.0
1789862285.693021,18516.825,33486.255,56505.375,40239.405,31536.719999999998,21742.02,7102.755,-717.8399999999999,0.0
1789862285.6930325,18513.135,33477.119999999995,56481.165,40220.909999999996,31526.73,21732.434999999998,7086.78,-723.6899999999999,0.0
1789862285.697389,18514.26,33466.994999999995,56463.84,40230.63,31537.844999999998,21733.965,7063.335,-726.7049999999999,0.0
1789862285.6974103,18527.219999999998,33486.525,56450.7,40245.84,31550.309999999998,21739.094999999998,6984.855,-723.735,0.0
1789862285.701623,18536.13,33522.525,56564.46,40294.755,31571.684999999998,21756.51,7033.634999999999,-714.06,0.0
1789862285.7016351,18504.809999999998,33483.96,56548.935,40265.235,31553.28,21753.18,7174.349999999999,-721.755,0.0
1789862285.7058408,18501.704999999998,33481.53,56540.655,40241.655,31538.835,21739.68,7151.94,-725.985,0.0
1789862285.7058516,18498.285,33468.345,56468.88,40215.42,31510.17,21715.29,7147.035,-724.86,0.0
1789862285.709643,18497.88,33459.435,56473.875,40241.88,31523.355,21730.184999999998,7134.705,-727.38,0.0
1789862285.709654,18505.89,33472.935,56483.369999999995,40225.455,31534.515,21740.085,7122.6449999999995,-723.1949999999999,0.0
1789862285.7136953,18513.809999999998,33493.68,56493.945,40207.905,31535.46,21736.44,7080.3,-723.555,0.0
1789862285.7137046,18505.575,33485.985,56491.695,40215.195,31523.039999999997,21722.805,7088.8949999999995,-729.36,0.0
1789862285.7176902,18504.27,33485.31,56497.454999999994,40228.92,31524.21,21724.469999999998,7132.23,-729.3149999999999,0.0
1789862285.7177012,18498.42,33459.885,56486.97,40242.104999999996,31541.175,21742.92,7141.545,-727.6949999999999,0.0
1789862285.720988,18497.61,33457.77,56473.695,40243.68,31547.925,21751.245,7125.344999999999,-728.1899999999999,0.0
1789862285.7209992,18496.395,33477.525,56463.75,40226.31,31528.305,21736.53,7116.66,-733.995,0.0
1789862285.7256114,18505.079999999998,33497.909999999996,56499.975,40219.56,31525.695,21733.2,7107.03,-732.3299999999999,0.0
1789862285.7256224,18507.87,33502.545,56540.384999999995,40230.405,31546.754999999997,21744.405,7092.495,-733.545,0.0
1789862285.7298791,18514.575,33497.82,56491.92,40232.655,31564.844999999998,21749.76,7111.9349999999995,-722.115,0.0
1789862285.7298884,18514.17,33500.52,56496.645,40227.479999999996,31509.855,21714.254999999997,7106.804999999999,-724.5899999999999,0.0
1789862285.7354417,18500.985,33471.72,56518.47,40248.72,31522.364999999998,21729.735,7080.03,-737.055,0.0
1789862285.7354553,18509.805,33466.545,56510.235,40280.49,31557.824999999997,21742.2,7058.25,-728.37,0.0
1789862285.7376812,18520.245,33487.29,56464.604999999996,40246.335,31546.754999999997,21734.28,7100.325,-715.365,0.0
1789862285.7376893,18521.954999999998,33513.119999999995,56502.81,40233.96,31541.67,21754.62,7137.585,-716.355,0.0
1789862285.7417688,18516.6,33500.88,56504.61,40239.72,31541.805,21762.809999999998,7115.4,-719.01,0.0
1789862285.74178,18506.25,33479.055,56482.92,40229.505,31532.219999999998,21739.545,7099.5599999999995,-726.345,0.0
1789862285.7456453,18512.145,33487.515,56499.255,40234.68,31530.015,21722.67,7114.23,-723.3299999999999,0.0
1789862285.7456558,18513.36,33484.86,56483.28,40226.58,31524.48,21727.17,7123.724999999999,-723.1949999999999,0.0
1789862285.7496936,18511.515,33475.725,56471.174999999996,40226.939999999995,31515.254999999997,21719.295,7135.155,-719.91,0.0
1789862285.7497125,18500.805,33464.655,56468.43,40229.46,31531.23,21733.605,7122.285,-730.53,0.0
1789862285.7536466,18503.37,33469.92,56499.57,40248.72,31546.395,21746.879999999997,7121.474999999999,-727.38,0.0
1789862285.753657,18503.864999999998,33470.549999999996,56521.034999999996,40262.67,31550.129999999997,21751.245,7121.07,-725.355,0.0
1789862285.7572231,18507.87,33472.08,56490.255,40253.76,31550.985,21753.405,7119.585,-722.97,0.0
1789862285.7572348,18515.655,33483.69,56486.924999999996,40228.695,31522.77,21724.695,7110.99,-722.115,0.0
1789862285.7616477,18517.05,33484.095,56493.494999999995,40228.38,31513.32,21717.36,7111.304999999999,-719.595,0.0
1789862285.7616599,18503.82,33458.445,56477.25,40232.79,31527.405,21728.024999999998,7110.63,-727.515,0.0
1789862285.7658072,18503.64,33462.09,56465.909999999996,40229.189999999995,31526.504999999997,21727.395,7107.4349999999995,-727.8299999999999,0.0
1789862285.7658203,18510.12,33482.43,56479.77,40222.395,31525.785,21731.715,7106.3099999999995,-726.75,0.0
1789862285.769626,18511.02,33477.21,56514.24,40242.104999999996,31534.11,21738.735,7109.6849999999995,-724.5899999999999,0.0
1789862285.7696373,18513.809999999998,33473.835,56522.7,40232.385,31540.454999999998,21738.555,7107.974999999999,-723.4649999999999,0.0
1789862285.773584,18517.41,33473.25,56554.65,40276.034999999996,31548.105,21743.01,7106.3099999999995,-722.5649999999999,0.0
1789862285.7735944,18525.735,33461.955,56540.159999999996,40286.61,31547.565,21742.875,7102.3949999999995,-717.03,0.0
1789862285.776908,18531.675,33429.284999999996,56440.799999999996,40220.325,31546.17,21743.325,7111.3949999999995,-709.515,0.0
1789862285.776918,18522.36,33376.005,56387.61,40202.415,31531.364999999998,21743.684999999998,7120.53,-713.115,0.0
1789862285.7806294,18519.75,33426.27,56408.265,40217.13,31521.465,21731.67,7113.15,-718.605,0.0
1789862285.7806408,18496.395,33486.705,56530.845,40240.575,31531.14,21730.454999999998,7104.78,-733.23,0.0
1789862285.7866695,18489.96,33519.645,56533.275,40245.435,31525.605,21733.559999999998,7106.355,-738.495,0.0
1789862285.7866836,18510.66,33481.215,56503.215,40244.805,31527.27,21733.829999999998,7106.67,-726.165,0.0
1789862285.7897215,18505.62,33441.165,56461.095,40233.96,31521.195,21728.204999999998,7104.6449999999995,-727.29,0.0
1789862285.7897367,18497.969999999998,33450.795,56433.06,40227.255,31521.6,21729.825,7104.195,-732.285,0.0
1789862285.7938857,18505.89,33480.135,56468.655,40242.42,31535.954999999998,21740.219999999998,7104.285,-729.18,0.0
1789862285.7938976,18518.309999999998,33483.869999999995,56513.655,40260.06,31548.105,21744.719999999998,7101.63,-723.555,0.0
1789862285.7998123,18528.255,33479.01,56513.655,40255.244999999995,31549.949999999997,21747.69,7105.1849999999995,-714.24,0.0
1789862285.7998283,18509.219999999998,33464.97,56529.81,40247.01,31546.574999999997,21751.829999999998,7105.005,-723.375,0.0
1789862285.8016908,18496.395,33488.1,56512.125,40229.729999999996,31520.16,21744.09,7108.0199999999995,-730.0799999999999,0.0
1789862285.8017054,18486.405,33477.525,56439.54,40225.86,31534.515,21748.995,7101.495,-743.265,0.0
1789862285.8059115,18501.93,33418.71,56456.055,40238.145,31539.285,21748.725,7107.48,-729.72,0.0
1789862285.8059306,18504.045,33332.354999999996,56490.75,40232.61,31539.645,21739.995,7107.48,-726.66,0.0
1789862285.8140583,18521.684999999998,33316.875,56523.6,40271.85,31539.87,21742.605,7106.67,-714.1949999999999,0.0
1789862285.8140824,18515.024999999998,33386.76,56518.56,40274.369999999995,31537.079999999998,21744.315,7107.66,-716.4,0.0
1789862285.8141055,18518.895,33451.155,56500.56,40250.655,31538.61,21743.235,7104.78,-722.0699999999999,0.0
1789862285.8141165,18567.315,33427.935,56466.314999999995,40236.21,31534.335,21742.515,7106.58,-698.7149999999999,0.0
1789862285.8179471,18553.454999999998,33358.95,56455.92,40279.049999999996,31570.245,21768.975,7107.795,-704.295,0.0
1789862285.817963,18540.09,33314.085,56433.06,40295.61,31575.87,21768.21,7106.445,-713.2049999999999,0.0
1789862285.8243437,18525.51,33290.909999999996,56488.32,40263.435,31545.0,21753.719999999998,7112.384999999999,-708.795,0.0
1789862285.8243656,18467.73,33410.25,56528.46,40248.99,31529.16,21740.04,7101.045,-749.0699999999999,0.0
1789862285.8249333,18483.93,33524.235,56476.53,40233.645,31517.414999999997,21730.004999999997,7101.8099999999995,-747.0899999999999,0.0
1789862285.8249524,18478.71,33534.72,56456.189999999995,40243.32,31525.92,21734.235,7103.565,-750.24,0.0
1789862285.8291285,18482.355,33512.85,56466.045,40246.695,31526.954999999998,21734.28,7100.099999999999,-748.8,0.0
1789862285.829147,18500.085,33528.735,56476.305,40217.4,31496.085,21712.905,7097.49,-738.855,0.0
1789862285.83484,18507.42,33517.034999999996,56463.435,40223.115,31502.745,21716.055,7097.355,-736.0649999999999,0.0
1789862285.8348653,18515.34,33456.195,56446.47,40212.135,31498.605,21715.695,7095.96,-733.05,0.0
1789862285.8382213,18512.864999999998,33390.135,56432.655,40223.385,31519.754999999997,21737.43,7102.9349999999995,-729.54,0.0
1789862285.838251,18511.649999999998,33410.07,56435.31,40248.135,31529.61,21742.695,7100.91,-728.64,0.0
1789862285.8445115,18512.864999999998,33518.07,56455.784999999996,40247.46,31512.285,21723.12,7093.17,-736.74,0.0
1789862285.8445349,18494.505,33528.96,56484.405,40240.935,31514.535,21723.48,7091.82,-748.89,0.0
1789862285.8548465,18504.315,33477.345,56463.03,40254.659999999996,31538.969999999998,21738.329999999998,7096.41,-741.015,0.0
1789862285.8548737,18517.32,33434.369999999995,56457.405,40257.135,31534.515,21735.809999999998,7096.1849999999995,-733.545,0.0
1789862285.8549004,18518.579999999998,33386.354999999996,56461.005,40242.645,31520.565,21727.62,7091.594999999999,-734.355,0.0
1789862285.8549123,18502.02,33359.085,56434.86,40238.145,31530.329999999998,21731.535,7090.83,-738.405,0.0
1789862285.854927,18489.555,33420.96,56413.845,40239.405,31522.545,21720.42,7083.99,-745.0649999999999,0.0
1789862285.8549385,18503.55,33501.06,56450.744999999995,40218.93,31502.879999999997,21713.129999999997,7078.815,-746.595,0.0
1789862285.8574288,18506.835,33514.65,56461.32,40202.369999999995,31530.239999999998,21722.219999999998,7077.014999999999,-747.54,0.0
1789862285.8574564,18499.815,33465.869999999995,56454.615,40210.424999999996,31544.594999999998,21716.325,7087.86,-743.805,0.0
1789862285.863209,18512.46,33471.18,56467.979999999996,40221.27,31440.87,21658.004999999997,7080.344999999999,-740.0699999999999,0.0
1789862285.863231,18510.48,33456.42,56462.759999999995,40245.345,31501.215,21693.735,7074.63,-741.6899999999999,0.0
1789862285.8657916,18503.01,33436.485,56455.424999999996,40256.549999999996,31533.75,21725.504999999997,7075.71,-742.365,0.0
1789862285.8658085,18487.53,33420.104999999996,56430.63,40241.34,31533.48,21750.93,7080.48,-751.05,0.0
1789862285.8706436,18485.28,33428.88,56438.865,40217.58,31488.614999999998,21713.985,7075.62,-756.81,0.0
1789862285.8706555,18493.2,33441.795,56463.704999999994,40222.35,31493.07,21699.675,7067.835,-753.5699999999999,0.0
1789862285.875576,18493.739999999998,33436.395,56458.259999999995,40227.165,31504.32,21714.39,7072.605,-751.905,0.0
1789862285.8755918,18490.68,33423.705,56444.715,40210.74,31492.53,21705.524999999998,7081.38,-750.645,0.0
1789862285.8797452,18487.26,33399.854999999996,56448.18,40211.325,31488.21,21696.434999999998,7083.9,-754.47,0.0
1789862285.8797693,18482.76,33370.604999999996,56432.204999999994,40218.345,31494.87,21702.555,7082.955,-753.93,0.0
1789862285.8860855,18491.76,33407.865,56434.185,40220.055,31501.485,21712.68,7074.36,-749.79,0.0
1789862285.88611,18486.675,33441.21,56437.875,40215.06,31504.004999999997,21715.785,7064.28,-752.4449999999999,0.0
1789862285.8874357,18484.155,33435.405,56454.479999999996,40224.645,31507.785,21705.66,7070.535,-751.995,0.0
1789862285.8874488,18471.059999999998,33410.655,56444.895,40215.375,31498.965,21706.335,7080.929999999999,-759.3299999999999,0.0
1789862285.8904605,18474.12,33419.655,56447.865,40211.055,31501.98,21702.329999999998,7078.1849999999995,-758.0699999999999,0.0
1789862285.8904717,18483.21,33432.525,56457.45,40202.549999999996,31497.48,21693.375,7088.985,-751.68,0.0
1789862285.8964963,18483.93,33431.985,56429.145,40200.39,31493.385,21679.695,7085.655,-751.185,0.0
1789862285.8965085,18480.87,33423.075,56407.59,40213.935,31509.045,21695.309999999998,7075.889999999999,-754.9649999999999,0.0
1789862285.8971655,18468.585,33407.685,56420.729999999996,40228.515,31523.895,21734.954999999998,7067.745,-764.1,0.0
1789862285.8971777,18469.17,33411.78,56445.93,40231.08,31522.05,21741.614999999998,7051.094999999999,-763.8299999999999,0.0
1789862285.904222,18479.565,33415.74,56448.63,40225.185,31502.204999999998,21701.204999999998,7045.965,-751.68,0.0
1789862285.9042344,18482.399999999998,33411.78,56433.284999999996,40231.08,31511.295,21702.329999999998,7055.28,-750.87,0.0
1789862285.9054391,18482.219999999998,33412.455,56416.905,40232.025,31527.945,21731.219999999998,7086.42,-750.42,0.0
1789862285.9054503,18475.92,33403.455,56411.954999999994,40213.439999999995,31513.364999999998,21736.53,7120.304999999999,-748.845,0.0
1789862285.9122996,18478.755,33412.32,56488.905,40211.955,31494.42,21720.015,7113.509999999999,-748.755,0.0
1789862285.912315,18473.309999999998,33399.854999999996,56483.549999999996,40230.72,31511.969999999998,21723.524999999998,7100.955,-755.37,0.0
1789862285.9157593,18479.07,33414.345,56449.755,40236.705,31527.945,21731.175,7096.7699999999995,-754.38,0.0
1789862285.915772,18480.555,33428.07,56439.63,40212.9,31526.684999999998,21732.075,7098.66,-749.52,0.0
1789862285.9179745,18490.32,33425.685,56443.68,40211.82,31499.324999999997,21705.795,7091.775,-743.355,0.0
1789862285.917982,18486.315,33413.715,56453.22,40220.505,31504.635,21703.14,7090.605,-743.355,0.0
1789862285.9204967,18499.005,33423.705,56459.295,40205.744999999995,31492.035,21693.329999999998,7087.995,-738.27,0.0
1789862285.9205058,18486.36,33407.955,56446.965,40222.979999999996,31510.664999999997,21707.01,7085.34,-749.115,0.0
1789862285.925073,18480.78,33407.775,56443.049999999996,40244.445,31525.829999999998,21733.695,7090.0199999999995,-750.78,0.0
1789862285.9250803,18487.53,33428.97,56450.295,40216.005,31507.875,21727.934999999998,7089.03,-749.925,0.0
1789862285.9303465,18503.325,33440.085,56422.755,40190.31,31491.135,21704.355,7091.1449999999995,-739.035,0.0
1789862285.9303644,18495.719999999998,33459.345,56453.67,40213.89,31512.645,21708.27,7087.455,-749.43,0.0
1789862285.9349613,18492.344999999998,33446.88,56462.67,40240.215,31524.75,21729.735,7090.0199999999995,-747.3149999999999,0.0
1789862285.9349837,18493.515,33418.755,56467.89,40240.395,31517.28,21717.585,7089.929999999999,-740.3399999999999,0.0
1789862285.9385164,18494.73,33410.43,56488.409999999996,40228.965,31510.844999999998,21709.26,7088.804999999999,-741.78,0.0
1789862285.938536,18501.3,33401.34,56476.71,40214.835,31516.649999999998,21725.46,7094.07,-734.85,0.0
1789862285.9411774,18500.219999999998,33390.54,56456.549999999996,40207.095,31497.57,21711.96,7096.679999999999,-734.7149999999999,0.0
1789862285.9411988,18483.84,33382.53,56462.759999999995,40238.549999999996,31504.23,21706.785,7091.91,-742.5899999999999,0.0
1789862285.9460776,18483.12,33417.72,56477.744999999995,40244.22,31511.745,21707.235,7088.355,-747.99,0.0
1789862285.9461012,18496.305,33436.395,56452.409999999996,40232.115,31531.77,21724.739999999998,7095.87,-741.3299999999999,0.0
1789862285.9511895,18498.465,33416.46,56467.034999999996,40260.42,31542.3,21731.579999999998,7096.59,-739.89,0.0
1789862285.9512095,18503.46,33407.729999999996,56448.585,40228.784999999996,31514.355,21716.46,7096.905,-734.49,0.0
1789862285.9531512,18500.445,33412.095,56432.97,40193.369999999995,31504.004999999997,21714.165,7094.745,-734.805,0.0
1789862285.953168,18486.63,33427.935,56440.125,40224.869999999995,31529.385,21724.379999999997,7091.955,-746.37,0.0
1789862285.9578736,18480.78,33427.17,56427.119999999995,40232.385,31502.925,21703.5,7089.21,-749.88,0.0
1789862285.9578989,18489.735,33429.104999999996,56417.445,40202.369999999995,31497.12,21702.015,7081.695,-742.185,0.0
1789862285.962076,18500.535,33470.325,56438.145,40204.799999999996,31501.934999999998,21700.754999999997,7025.985,-743.805,0.0
1789862285.9620996,18496.035,33474.96,56470.77,40217.715,31506.885,21692.385,6959.384999999999,-754.65,0.0
1789862285.981995,18499.05,33447.915,56522.384999999995,40234.095,31508.954999999998,21684.195,6981.929999999999,-750.735,0.0
1789862285.9820223,18496.53,33412.905,56502.09,40231.26,31513.094999999998,21694.635,7083.2699999999995,-741.375,0.0
1789862285.9820523,18487.125,33416.055,56482.829999999994,40215.915,31516.92,21715.11,7130.5199999999995,-743.13,0.0
1789862285.9820652,18484.29,33423.885,56507.985,40255.47,31528.844999999998,21709.98,7127.1449999999995,-747.9449999999999,0.0
1789862285.9820812,18496.755,33432.795,56482.47,40241.43,31505.219999999998,21696.12,7122.6449999999995,-737.415,0.0
1789862285.982093,18491.445,33417.72,56417.22,40202.549999999996,31489.875,21698.28,7072.065,-744.48,0.0
1789862285.9821105,18494.46,33449.534999999996,56447.28,40223.34,31506.21,21691.17,6972.615,-759.15,0.0
1789862285.9821224,18506.385,33495.255,56507.715,40268.655,31544.28,21717.18,6908.4,-775.35,0.0
1789862285.9821367,18493.785,33462.674999999996,56485.935,40270.905,31560.434999999998,21752.774999999998,6989.445,-770.535,0.0
1789862285.982149,18484.335,33416.909999999996,56444.174999999996,40235.939999999995,31525.02,21724.425,7136.054999999999,-741.915,0.0
1789862285.9863253,18460.755,33379.335,56430.945,40203.225,31483.98,21695.535,7209.09,-737.37,0.0
1789862285.986349,18464.219999999998,33390.27,56462.13,40225.095,31503.375,21704.399999999998,7147.259999999999,-748.845,0.0
1789862285.9887135,18475.605,33383.88,56441.07,40228.2,31507.829999999998,21683.295,7089.3,-747.495,0.0
1789862285.9887302,18475.515,33399.494999999995,56440.034999999996,40218.119999999995,31505.219999999998,21698.46,7027.514999999999,-756.765,0.0
1789862285.995195,18476.684999999998,33439.095,56479.005,40214.025,31497.57,21692.024999999998,7053.03,-760.8149999999999,0.0
1789862285.9952207,18471.105,33431.22,56492.055,40220.82,31503.329999999998,21694.004999999997,7125.795,-760.68,0.0
1789862286.0110695,18468.989999999998,33409.08,56484.18,40246.335,31522.86,21698.055,6992.28,-778.3199999999999,0.0
1789862286.0110905,18485.055,33429.33,56488.185,40254.705,31530.105,21694.635,6863.8949999999995,-779.355,0.0
1789862286.0111108,18490.95,33434.235,56457.9,40234.185,31528.62,21704.355,6990.48,-756.4499999999999,0.0
1789862286.0111191,18450.315,33384.42,56414.655,40201.695,31500.18,21699.36,7268.849999999999,-750.285,0.0
1789862286.011129,18446.355,33379.515,56416.409999999996,40199.354999999996,31475.34,21679.11,7220.474999999999,-753.48,0.0
1789862286.0111368,18460.71,33398.865,56418.255,40188.51,31488.254999999997,21683.385,7132.41,-757.89,0.0
1789862286.011146,18463.545,33399.945,56420.729999999996,40174.74,31496.535,21688.11,7116.21,-756.405,0.0
1789862286.0111537,18457.785,33387.659999999996,56416.77,40189.095,31501.844999999998,21687.254999999997,7097.535,-761.805,0.0
1789862286.0139487,18457.875,33388.155,56417.31,40183.56,31490.235,21676.004999999997,7092.8099999999995,-764.505,0.0
1789862286.013972,18453.825,33385.365,56427.479999999996,40204.799999999996,31497.93,21679.335,7095.195,-766.7099999999999,0.0
1789862286.0180898,18454.094999999998,33397.74,56458.935,40220.729999999996,31498.245,21679.29,7089.929999999999,-769.365,0.0
1789862286.0181067,18460.844999999998,33412.86,56475.585,40215.51,31508.594999999998,21692.475,7085.474999999999,-765.045,0.0
1789862286.0240233,18464.309999999998,33414.705,56441.655,40206.375,31512.015,21695.895,7086.96,-761.85,0.0
1789862286.0240402,18463.05,33408.9,56430.045,40200.479999999996,31502.43,21680.504999999997,7078.995,-764.73,0.0
1789862286.0253952,18463.545,33407.775,56448.36,40208.67,31507.605,21681.855,7082.1449999999995,-763.0649999999999,0.0
1789862286.0254118,18462.78,33408.854999999996,56446.424999999996,40209.165,31510.26,21686.85,7078.41,-764.685,0.0
1789862286.030014,18462.285,33409.979999999996,56428.244999999995,40196.79,31501.754999999997,21690.495,7075.035,-767.3399999999999,0.0
1789862286.0300403,18457.92,33397.155,56426.759999999995,40193.549999999996,31496.355,21687.075,7076.61,-767.655,0.0
1789862286.0375159,18457.245,33390.494999999995,56428.56,40195.034999999996,31499.73,21690.405,7078.86,-766.0799999999999,0.0
1789862286.037532,18458.28,33398.01,56439.72,40191.615,31494.87,21681.27,7070.04,-769.3199999999999,0.0
1789862286.0387852,18468.809999999998,33419.79,56455.02,40211.955,31506.254999999997,21681.945,7049.295,-766.395,0.0
1789862286.0387962,18466.38,33421.994999999995,56470.725,40225.229999999996,31519.395,21688.335,7040.384999999999,-769.635,0.0
1789862286.042236,18462.375,33412.545,56468.61,40219.38,31518.36,21690.989999999998,7059.87,-767.79,0.0
1789862286.0422485,18450.045,33396.03,56428.56,40208.939999999995,31516.695,21696.885,7082.009999999999,-770.49,0.0
1789862286.0451195,18452.925,33396.345,56382.704999999994,40162.229999999996,31497.03,21690.09,7079.355,-766.8,0.0
1789862286.045127,18446.805,33385.32,56394.405,40171.905,31565.43,21720.015,7060.05,-774.18,0.0
1789862286.0500448,18467.82,33410.835,56433.104999999996,40216.994999999995,31462.155,21650.535,7051.95,-764.1,0.0
1789862286.0500581,18464.399999999998,33416.595,56439.045,40208.13,31456.71,21658.86,7083.764999999999,-764.1,0.0
1789862286.0545845,18461.114999999998,33414.165,56427.659999999996,40209.975,31486.725,21675.465,7072.74,-766.89,0.0
1789862286.0546026,18460.305,33409.755,56419.244999999995,40203.585,31498.11,21681.629999999997,7054.965,-767.52,0.0
1789862286.0578916,18460.035,33412.14,56445.479999999996,40199.085,31481.954999999998,21671.28,7060.275,-767.925,0.0
1789862286.057907,18457.605,33418.619999999995,56489.715,40214.564999999995,31487.76,21672.405,7078.32,-773.28,0.0
1789862286.0625045,18458.594999999998,33413.94,56480.354999999996,40215.15,31491.809999999998,21673.17,7084.304999999999,-769.23,0.0
1789862286.06252,18458.82,33425.01,56442.645,40202.82,31494.78,21678.434999999998,7083.405,-767.5649999999999,0.0
1789862286.0652404,18462.915,33433.155,56403.36,40193.46,31492.89,21676.004999999997,7068.42,-768.24,0.0
1789862286.065255,18453.87,33414.795,56371.409999999996,40175.64,31487.039999999997,21674.969999999998,7065.719999999999,-773.28,0.0
1789862286.0698771,18454.545,33407.46,56423.61,40199.805,31493.835,21678.93,7075.889999999999,-769.77,0.0
1789862286.0698934,18454.635,33423.659999999996,56510.189999999995,40241.159999999996,31512.735,21684.149999999998,7076.5199999999995,-773.73,0.0
1789862286.0765405,18461.745,33439.409999999996,56490.57,40231.395,31512.645,21685.454999999998,7068.195,-774.225,0.0
1789862286.0765617,18460.934999999998,33430.095,56452.32,40192.83,31484.835,21669.434999999998,7069.455,-770.7149999999999,0.0
1789862286.0778496,18451.485,33425.46,56479.454999999994,40199.939999999995,31483.754999999997,21661.515,7048.8,-778.8149999999999,0.0
1789862286.0778675,18452.385,33433.695,56531.43,40230.585,31500.045,21667.23,7000.38,-782.1,0.0
1789862286.082044,18466.38,33442.65,56494.89,40229.82,31510.62,21675.96,6978.96,-775.2149999999999,0.0
1789862286.0820663,18479.925,33455.34,56413.439999999995,40199.085,31511.024999999998,21677.175,7011.179999999999,-766.89,0.0
1789862286.0853777,18475.785,33452.865,56439.36,40202.28,31507.875,21674.204999999998,7045.785,-766.17,0.0
1789862286.085399,18462.645,33431.895,56446.38,40202.28,31510.934999999998,21687.39,7073.325,-766.98,0.0
1789862286.0894408,18451.395,33417.36,56437.829999999994,40195.665,31505.985,21692.43,7073.82,-770.67,0.0
1789862286.0894637,18439.695,33403.994999999995,56406.735,40171.455,31489.335,21694.995,7094.295,-774.225,0.0
1789862286.0982304,18448.649999999998,33418.034999999996,56422.845,40182.479999999996,31493.745,21686.355,7094.025,-773.73,0.0
1789862286.09825,18454.32,33425.01,56422.575,40176.135,31486.905,21671.145,7104.33,-770.4449999999999,0.0
1789862286.0982797,18452.745,33423.255,56436.93,40192.56,31505.129999999997,21681.09,7111.304999999999,-770.22,0.0
1789862286.0982883,18452.79,33423.659999999996,56446.155,40198.455,31492.664999999997,21672.899999999998,7092.224999999999,-772.425,0.0
1789862286.1019993,18456.614999999998,33427.619999999995,56445.975,40199.265,31499.55,21685.77,7087.41,-769.68,0.0
1789862286.1020353,18459.18,33417.9,56431.215,40192.38,31497.795,21680.73,7080.165,-770.0849999999999,0.0
1789862286.1144855,18471.195,33405.21,56435.715,40206.78,31509.045,21686.219999999998,7077.15,-763.515,0.0
1789862286.1145036,18477.09,33388.604999999996,56436.075,40196.744999999995,31496.085,21676.454999999998,7073.1449999999995,-762.8399999999999,0.0
1789862286.1145227,18457.515,33394.229999999996,56430.9,40187.744999999995,31491.585,21674.745,7074.224999999999,-769.4549999999999,0.0
1789862286.1145296,18434.52,33417.315,56440.755,40190.04,31493.52,21675.69,7074.134999999999,-778.41,0.0
1789862286.114538,18428.219999999998,33431.354999999996,56443.68,40195.26,31498.605,21678.254999999997,7070.58,-786.375,0.0
1789862286.1145449,18444.555,33432.075,56455.155,40199.805,31505.76,21685.14,7074.36,-777.87,0.0
1789862286.1183865,18446.355,33425.685,56451.15,40191.795,31492.754999999997,21675.105,7070.219999999999,-778.5899999999999,0.0
1789862286.118405,18448.649999999998,33422.354999999996,56445.255,40197.465,31497.074999999997,21679.695,7066.62,-776.115,0.0
1789862286.157576,18450.495,33421.185,56441.204999999994,40211.145,31509.045,21689.774999999998,7068.014999999999,-774.495,0.0
1789862286.1576123,18447.075,33408.225,56436.345,40196.744999999995,31488.66,21669.93,7065.224999999999,-777.375,0.0
1789862286.1576529,18458.46,33418.665,56438.055,40182.795,31483.035,21664.485,7064.28,-771.12,0.0
1789862286.1576693,18455.625,33422.4,56432.295,40187.07,31491.585,21669.03,7069.679999999999,-774.045,0.0
1789862286.1577568,18453.375,33418.935,56430.63,40184.82,31489.155,21667.094999999998,7071.12,-775.305,0.0
1789862286.1577747,18457.335,33353.685,56432.43,40197.869999999995,31497.795,21672.27,7067.429999999999,-774.225,0.0
1789862286.1577957,18458.864999999998,33263.055,56457.585,40219.155,31505.579999999998,21677.94,7068.735,-770.265,0.0
1789862286.1578116,18450.27,33281.28,56467.619999999995,40220.46,31500.135,21674.745,7066.98,-770.67,0.0
1789862286.15783,18443.969999999998,33421.77,56430.045,40192.064999999995,31495.454999999998,21677.94,7068.87,-775.62,0.0
1789862286.1578465,18454.77,33531.435,56423.61,40181.13,31494.329999999998,21680.415,7069.995,-778.41,0.0
1789862286.1578648,18463.184999999998,33473.115,56430.225,40187.88,31487.67,21662.055,7067.655,-770.265,0.0
1789862286.15788,18457.02,33447.284999999996,56424.96,40181.49,31480.785,21653.64,7066.349999999999,-773.37,0.0
1789862286.157898,18456.84,33434.055,56420.055,40184.369999999995,31485.914999999997,21656.295,7066.035,-775.935,0.0
1789862286.1579132,18459.719999999998,33440.22,56433.42,40186.935,31489.649999999998,21664.35,7055.639999999999,-773.3249999999999,0.0
1789862286.1579323,18439.92,33417.945,56407.814999999995,40173.479999999996,31483.26,21658.41,7037.6849999999995,-782.055,0.0
1789862286.1579475,18446.085,33424.604999999996,56427.479999999996,40187.07,31495.68,21673.079999999998,7042.95,-784.2149999999999,0.0
1789862286.1579654,18460.485,33428.115,56437.02,40200.119999999995,31503.015,21677.219999999998,7023.33,-777.3299999999999,0.0
1789862286.157981,18458.28,33401.295,56412.72,40208.715,31505.76,21664.98,7001.28,-775.98,0.0
1789862286.1588752,18466.245,33414.345,56423.564999999995,40209.57,31502.699999999997,21664.575,7040.205,-769.77,0.0
1789862286.1589105,18473.985,33437.88,56443.634999999995,40183.244999999995,31479.434999999998,21658.05,7112.205,-759.555,0.0
1789862286.1617663,18473.85,33445.619999999995,56463.435,40198.409999999996,31489.695,21667.004999999997,7092.045,-763.155,0.0
1789862286.1617937,18468.36,33437.97,56467.17,40208.85,31495.004999999997,21664.26,7063.92,-771.93,0.0
1789862286.1673274,18461.969999999998,33418.395,56445.615,40198.95,31488.57,21658.184999999998,7085.61,-772.6949999999999,0.0
1789862286.1673613,18464.175,33423.39,56428.784999999996,40190.354999999996,31492.53,21667.094999999998,7077.87,-770.265,0.0
1789862286.1814704,18457.605,33422.085,56442.24,40202.01,31499.91,21667.184999999998,7071.21,-775.89,0.0
1789862286.181486,18448.785,33411.42,56447.009999999995,40210.02,31505.715,21674.835,7084.62,-780.5699999999999,0.0
1789862286.1815,18451.125,33406.515,56424.06,40208.31,31509.945,21679.2,7093.259999999999,-775.89,0.0
1789862286.181506,18446.535,33397.29,56408.31,40187.385,31489.965,21665.61,7080.929999999999,-774.3149999999999,0.0
1789862286.1815126,18454.32,33406.424999999996,56416.5,40186.26,31486.545,21658.004999999997,7074.224999999999,-774.765,0.0
1789862286.181518,18450.36,33397.965,56407.32,40174.875,31476.78,21646.26,7070.58,-776.115,0.0
1789862286.1822462,18447.66,33388.38,56393.82,40165.38,31467.6,21638.655,7067.16,-770.49,0.0
1789862286.1822848,18453.195,33403.229999999996,56398.409999999996,40156.875,31461.074999999997,21641.85,7062.21,-770.265,0.0
1789862286.1882234,18453.915,33405.255,56399.805,40163.805,31467.51,21645.405,7062.255,-770.9399999999999,0.0
1789862286.1882648,18449.91,33404.13,56421.63,40198.049999999996,31496.265,21661.155,7051.005,-780.48,0.0
1789862286.1898105,18450.63,33402.195,56446.02,40236.659999999996,31544.01,21679.515,7025.355,-780.48,0.0
1789862286.1898465,18458.864999999998,33413.31,56472.884999999995,40222.979999999996,31498.289999999997,21660.93,7024.005,-777.555,0.0
1789862286.1943731,18465.48,33424.47,56434.365,40192.02,31480.559999999998,21673.395,7068.6449999999995,-774.0899999999999,0.0
1789862286.1944113,18460.395,33422.445,56414.204999999994,40187.79,31490.145,21686.895,7080.974999999999,-778.095,0.0
1789862286.1987236,18455.085,33420.96,56456.189999999995,40209.57,31506.434999999998,21694.23,7082.37,-779.7149999999999,0.0
1789862286.1987581,18451.62,33409.979999999996,56442.284999999996,40201.11,31504.905,21682.26,7086.285,-778.8149999999999,0.0
1789862286.202634,18457.29,33407.369999999995,56419.695,40194.314999999995,31487.039999999997,21670.829999999998,7087.7699999999995,-771.66,0.0
1789862286.20267,18458.145,33415.424999999996,56439.81,40193.955,31481.055,21663.36,7086.105,-774.99,0.0
1789862286.2095284,18463.5,33421.86,56446.65,40210.784999999996,31494.87,21664.8,7074.495,-774.27,0.0
1789862286.2095633,18452.61,33400.26,56419.38,40209.93,31507.245,21669.975,7063.92,-775.98,0.0
1789862286.2109642,18447.434999999998,33393.42,56401.695,40186.17,31494.42,21665.34,7055.009999999999,-776.655,0.0
1789862286.210996,18451.079999999998,33399.09,56419.155,40201.244999999995,31518.18,21679.335,7050.554999999999,-779.805,0.0
1789862286.214321,18447.57,33392.115,56416.59,40223.564999999995,31508.594999999998,21678.39,7016.13,-786.78,0.0
1789862286.214357,18445.094999999998,33381.135,56407.005,40210.47,31507.379999999997,21675.42,6958.304999999999,-789.66,0.0
1789862286.2206824,18467.82,33418.755,56442.465,40218.165,31502.565,21667.004999999997,6940.9349999999995,-782.1899999999999,0.0
1789862286.220719,18473.625,33439.994999999995,56448.45,40184.46,31471.829999999998,21653.73,7018.2,-773.055,0.0
1789862286.2219846,18466.559999999998,33431.985,56440.215,40180.86,31475.655,21657.6,7091.19,-773.595,0.0
1789862286.2220092,18448.515,33404.534999999996,56429.189999999995,40172.805,31466.565,21649.815,7147.215,-780.795,0.0
1789862286.2288396,18436.995,33383.52,56421.81,40173.975,31473.629999999997,21653.684999999998,7135.514999999999,-784.89,0.0
1789862286.2288537,18442.934999999998,33404.31,56445.525,40183.604999999996,31476.149999999998,21658.545,7090.74,-785.97,0.0
1789862286.2323596,18458.91,33411.825,56440.17,40189.725,31464.225,21640.004999999997,7072.65,-776.925,0.0
1789862286.2323728,18459.585,33386.94,56402.954999999994,40175.955,31460.67,21640.094999999998,7076.88,-774.855,0.0
1789862286.2340484,18446.13,33374.07,56395.799999999996,40174.244999999995,31465.664999999997,21645.675,7079.67,-782.1,0.0
1789862286.2340682,18444.195,33396.345,56432.655,40190.31,31473.495,21647.969999999998,7078.905,-782.595,0.0
1789862286.2391632,18455.76,33410.79,56412.18,40187.07,31481.1,21655.754999999997,7075.485,-776.88,0.0
1789862286.239184,18455.445,33402.78,56399.534999999996,40188.555,31483.485,21655.71,7070.625,-778.095,0.0
1789862286.2423956,18457.02,33412.229999999996,56443.229999999996,40213.89,31501.215,21664.079999999998,7057.215,-778.995,0.0
1789862286.2424345,18451.035,33404.31,56452.68,40208.265,31498.965,21658.68,7020.63,-788.22,0.0
1789862286.2452624,18458.55,33400.305,56433.104999999996,40187.385,31486.23,21651.03,7015.455,-782.595,0.0
1789862286.2452903,18458.594999999998,33400.799999999996,56457.72,40204.619999999995,31493.879999999997,21657.239999999998,7056.0,-776.385,0.0
1789862286.2565672,18452.745,33399.045,56450.475,40192.11,31478.94,21648.239999999998,7080.255,-776.0699999999999,0.0
1789862286.2566006,18454.95,33408.225,56412.72,40177.935,31476.195,21648.42,7080.21,-777.87,0.0
1789862286.2566323,18461.7,33418.215,56422.034999999996,40188.284999999996,31490.91,21664.98,7080.21,-778.095,0.0
1789862286.256649,18460.934999999998,33420.645,56438.145,40196.25,31497.48,21668.805,7071.3,-777.8249999999999,0.0
1789862286.260462,18448.875,33400.799999999996,56421.63,40190.31,31489.649999999998,21653.37,7069.05,-782.01,0.0
1789862286.2604961,18449.954999999998,33391.845,56428.244999999995,40199.04,31491.405,21650.309999999998,7072.065,-781.0649999999999,0.0
1789862286.2618728,18458.46,33398.595,56447.369999999995,40210.604999999996,31498.245,21650.219999999998,7071.884999999999,-775.755,0.0
1789862286.2619033,18458.325,33405.93,56423.07,40186.755,31487.309999999998,21647.16,7071.03,-776.43,0.0
1789862286.2741044,18457.559999999998,33403.905,56397.78,40183.02,31493.745,21662.19,7073.099999999999,-777.645,0.0
1789862286.2741373,18459.585,33407.505,56417.67,40210.244999999995,31512.42,21671.504999999997,7070.58,-777.285,0.0
1789862286.27417,18455.445,33403.049999999996,56422.799999999996,40208.49,31508.37,21669.165,7067.295,-780.795,0.0
1789862286.274186,18454.184999999998,33392.205,56410.875,40181.31,31488.704999999998,21658.77,7071.795,-777.105,0.0
1789862286.2742033,18448.695,33385.32,56414.97,40197.51,31499.91,21664.035,7070.49,-779.895,0.0
1789862286.2742171,18449.055,33391.395,56426.805,40230.99,31526.055,21675.195,7036.605,-783.765,0.0
1789862286.2801998,18471.239999999998,33430.545,56453.805,40223.159999999996,31516.829999999998,21666.645,6978.735,-778.9499999999999,0.0
1789862286.2802312,18471.69,33420.375,56444.579999999994,40211.775,31507.379999999997,21660.704999999998,6993.945,-772.56,0.0
1789862286.281516,18465.524999999998,33405.345,56425.905,40190.76,31495.905,21661.469999999998,7082.594999999999,-767.2049999999999,0.0
1789862286.2815304,18459.36,33407.325,56420.595,40177.35,31482.045,21653.055,7116.57,-772.92,0.0
1789862286.2907119,18454.635,33410.924999999996,56429.729999999996,40174.784999999996,31475.385,21648.42,7079.715,-779.31,0.0
1789862286.2907264,18461.114999999998,33413.985,56436.75,40190.174999999996,31491.945,21657.555,7042.32,-774.99,0.0
1789862286.291399,18467.19,33418.575,56441.384999999995,40200.885,31504.905,21663.18,7019.73,-772.11,0.0
1789862286.29141,18458.37,33408.494999999995,56440.259999999995,40202.505,31503.645,21664.62,7046.505,-776.43,0.0
1789862286.2969575,18454.094999999998,33403.77,56439.18,40192.604999999996,31491.945,21657.42,7092.405,-777.24,0.0
1789862286.2969728,18449.28,33394.185,56423.97,40186.979999999996,31489.11,21653.594999999998,7123.95,-776.5649999999999,0.0
1789862286.2984836,18447.75,33389.82,56405.384999999995,40187.295,31495.949999999997,21654.135,7094.565,-777.87,0.0
1789862286.2984962,18442.485,33388.11,56400.435,40189.275,31503.555,21658.545,7083.675,-781.65,0.0
1789862286.301695,18456.66,33400.71,56415.104999999996,40192.56,31500.629999999997,21659.219999999998,7080.884999999999,-774.18,0.0
1789862286.3017187,18454.77,33398.145,56421.765,40188.735,31490.235,21654.36,7077.78,-774.27,0.0
1789862286.3064144,18447.66,33400.665,56457.36,40233.284999999996,31517.235,21669.075,7069.634999999999,-783.405,0.0
1789862286.306449,18443.969999999998,33399.765,56446.604999999996,40237.784999999996,31530.87,21681.0,7071.389999999999,-784.89,0.0
1789862286.312879,18452.61,33405.345,56421.045,40189.86,31505.219999999998,21662.01,7072.245,-777.015,0.0
1789862286.3129148,18469.215,33420.33,56413.439999999995,40149.405,31467.105,21639.96,7069.86,-768.285,0.0
1789862286.3171895,18461.43,33419.88,56423.564999999995,40158.54,31463.1,21634.695,7064.235,-775.845,0.0
1789862286.3172247,18453.105,33405.255,56423.43,40171.77,31474.26,21641.265,7064.1449999999995,-779.355,0.0
1789862286.3186944,18451.305,33396.165,56421.045,40178.115,31479.254999999997,21645.855,7064.009999999999,-780.2099999999999,0.0
1789862286.3187268,18451.395,33397.335,56429.145,40187.52,31486.635,21650.309999999998,7064.235,-779.4449999999999,0.0
1789862286.322423,18452.969999999998,33399.405,56437.784999999996,40195.845,31494.42,21655.395,7065.045,-777.915,0.0
1789862286.3224554,18447.12,33393.869999999995,56433.96,40190.4,31491.809999999998,21651.885,7062.705,-785.025,0.0
1789862286.3274362,18447.885,33391.305,56450.655,40193.955,31496.985,21654.855,7064.28,-785.52,0.0
1789862286.3274736,18444.555,33379.56,56444.895,40205.07,31505.309999999998,21658.32,7064.505,-784.53,0.0
1789862286.3317034,18453.555,33393.735,56391.39,40180.545,31498.335,21656.79,7067.34,-776.8349999999999,0.0
1789862286.331738,18460.98,33404.49,56402.46,40181.354999999996,31499.01,21655.844999999998,7063.92,-776.3399999999999,0.0
1789862286.333856,18464.94,33396.075,56428.244999999995,40183.74,31495.77,21651.434999999998,7058.295,-779.85,0.0
1789862286.33389,18458.73,33380.46,56442.104999999996,40183.29,31492.125,21653.504999999997,7062.615,-775.035,0.0
1789862286.3381896,18446.489999999998,33406.784999999996,56419.38,40187.295,31500.539999999997,21658.004999999997,7062.075,-781.6949999999999,0.0
1789862286.3382204,18456.075,33427.755,56411.595,40189.185,31502.879999999997,21657.915,7066.259999999999,-777.8249999999999,0.0
1789862286.3478355,18472.23,33420.104999999996,56426.22,40206.78,31517.28,21670.245,7079.759999999999,-763.245,0.0
1789862286.3478632,18472.184999999998,33418.08,56430.18,40199.895,31510.844999999998,21667.004999999997,7081.29,-765.0,0.0
1789862286.3478925,18471.149999999998,33442.065,56449.619999999995,40190.4,31502.43,21668.219999999998,7086.6449999999995,-770.31,0.0
1789862286.347906,18467.415,33444.27,56457.36,40210.424999999996,31521.149999999998,21681.719999999998,7089.795,-771.525,0.0
1789862286.3542223,18475.965,33451.875,56482.47,40237.965,31537.395,21690.945,7083.99,-772.785,0.0
1789862286.354236,18468.809999999998,33444.81,56482.56,40243.77,31543.515,21694.725,7076.429999999999,-781.515,0.0
1789862286.3542504,18456.524999999998,33421.545,56443.32,40204.71,31516.245,21673.485,7067.25,-788.4,0.0
1789862286.354256,18431.684999999998,33392.61,56422.755,40179.825,31493.295,21655.485,7060.634999999999,-793.4399999999999,0.0
1789862286.35726,18422.37,33375.555,56408.625,40173.255,31488.48,21650.085,7059.24,-789.165,0.0
1789862286.3572705,18433.44,33360.659999999996,56400.525,40168.485,31483.62,21643.92,7058.16,-783.3149999999999,0.0
1789862286.3643973,18433.71,33333.795,56415.689999999995,40188.284999999996,31498.469999999998,21652.469999999998,7060.005,-785.2049999999999,0.0
1789862286.3644311,18423.719999999998,33326.19,56422.799999999996,40209.119999999995,31511.43,21656.295,7058.34,-791.1899999999999,0.0
1789862286.365016,18423.45,33351.93,56456.685,40218.975,31508.684999999998,21651.434999999998,7051.905,-791.1,0.0
1789862286.3650324,18441.225,33412.86,56479.095,40191.93,31486.59,21636.675,7045.155,-787.14,0.0
1789862286.369566,18453.645,33394.994999999995,56419.74,40165.695,31479.524999999998,21630.149999999998,7046.505,-778.5899999999999,0.0
1789862286.3696575,18455.535,33395.805,56362.095,40157.369999999995,31488.704999999998,21638.43,7055.594999999999,-774.045,0.0
1789862286.374333,18462.329999999998,33426.36,56385.27,40154.31,31488.254999999997,21642.614999999998,7064.6849999999995,-769.41,0.0
1789862286.3743668,18450.405,33430.32,56415.195,40186.17,31507.785,21654.045,7068.0599999999995,-777.6899999999999,0.0
1789862286.377602,18443.204999999998,33417.405,56427.93,40197.42,31515.614999999998,21657.6,7068.554999999999,-778.68,0.0
1789862286.3776329,18445.094999999998,33422.265,56457.81,40205.385,31513.635,21650.579999999998,7062.884999999999,-780.75,0.0
1789862286.3829815,18440.82,33410.34,56465.325,40216.68,31518.855,21651.48,7060.1849999999995,-783.72,0.0
1789862286.3830228,18435.51,33383.52,56423.744999999995,40181.31,31494.059999999998,21634.335,7054.695,-787.23,0.0
1789862286.3878365,18436.184999999998,33379.83,56410.92,40153.725,31476.87,21625.38,7051.545,-786.87,0.0
1789862286.3878706,18436.41,33398.28,56412.674999999996,40158.854999999996,31481.594999999998,21628.575,7048.259999999999,-791.64,0.0
1789862286.3911138,18441.27,33404.445,56411.64,40167.045,31486.995,21630.78,7046.46,-791.55,0.0
1789862286.3911471,18442.17,33395.534999999996,56417.31,40171.185,31486.05,21625.605,7044.884999999999,-786.555,0.0
1789862286.3943048,18439.875,33396.705,56410.56,40171.229999999996,31487.985,21624.885,7045.605,-783.3149999999999,0.0
1789862286.3943448,18432.09,33397.695,56403.27,40168.439999999995,31485.645,21620.43,7046.19,-787.5899999999999,0.0
1789862286.3989344,18429.885,33392.655,56392.92,40167.314999999995,31487.399999999998,21621.87,7050.15,-789.435,0.0
1789862286.3989682,18433.26,33400.26,56417.579999999994,40178.744999999995,31496.535,21628.305,7053.48,-785.3399999999999,0.0
1789862286.4029057,18436.32,33398.145,56416.095,40180.59,31497.12,21627.27,7052.804999999999,-782.28,0.0
1789862286.4029405,18441.18,33401.025,56407.634999999995,40180.86,31499.55,21629.385,7052.355,-782.145,0.0
1789862286.407213,18446.085,33413.445,56422.89,40189.049999999996,31507.02,21634.2,7053.12,-780.975,0.0
1789862286.407246,18440.594999999998,33392.205,56419.74,40192.424999999996,31514.445,21642.524999999998,7060.7699999999995,-779.805,0.0
1789862286.4143505,18450.809999999998,33375.104999999996,56430.27,40211.145,31526.864999999998,21651.344999999998,7066.98,-772.605,0.0
1789862286.4143894,18453.51,33373.26,56453.22,40248.945,31555.44,21672.585,7077.599999999999,-770.13,0.0
1789862286.4144254,18442.53,33379.29,56464.92,40262.805,31570.829999999998,21689.774999999998,7089.66,-782.685,0.0
1789862286.414441,18465.21,33417.36,56471.22,40256.909999999996,31562.82,21681.629999999997,7081.785,-782.37,0.0
1789862286.418887,18464.085,33438.465,56474.549999999996,40238.955,31544.73,21663.27,7066.71,-784.305,0.0
1789862286.418928,18461.43,33457.229999999996,56460.284999999996,40222.17,31533.03,21649.454999999998,7053.884999999999,-784.665,0.0
1789862286.42201,18464.76,33439.409999999996,56431.53,40205.744999999995,31506.344999999998,21623.085,7038.045,-783.54,0.0
1789862286.4220395,18453.735,33411.6,56425.86,40198.185,31480.559999999998,21608.91,7033.139999999999,-785.2049999999999,0.0
1789862286.4277792,18421.92,33419.61,56433.96,40173.93,31473.0,21606.255,7041.554999999999,-787.86,0.0
1789862286.4277968,18399.6,33417.765,56412.494999999995,40162.185,31490.145,21615.48,7050.33,-798.2099999999999,0.0
1789862286.4329896,18424.665,33438.06,56428.92,40208.265,31527.045,21639.239999999998,7053.48,-792.54,0.0
1789862286.433005,18443.835,33426.585,56428.875,40202.955,31518.629999999997,21638.07,7054.83,-779.67,0.0
1789862286.4345615,18433.485,33399.9,56428.244999999995,40199.4,31507.515,21630.285,7053.12,-784.665,0.0
1789862286.434568,18442.98,33415.38,56431.259999999995,40186.17,31501.98,21632.129999999997,7055.37,-784.26,0.0
1789862286.4403217,18441.855,33425.415,56433.06,40199.58,31515.03,21640.05,7054.38,-788.85,0.0
1789862286.440338,18423.495,33415.155,56445.255,40213.575,31527.135,21653.37,7063.92,-787.005,0.0
1789862286.4432187,18425.295,33415.515,56458.034999999996,40203.045,31511.835,21642.75,7063.965,-781.605,0.0
1789862286.443231,18427.725,33387.795,56437.244999999995,40191.885,31499.414999999997,21626.055,7052.849999999999,-786.375,0.0
1789862286.4454348,18441.18,33372.27,56421.314999999995,40178.835,31485.42,21612.239999999998,7044.57,-786.375,0.0
1789862286.4454474,18442.079999999998,33381.405,56415.825,40173.795,31476.87,21601.71,7037.46,-790.3349999999999,0.0
1789862286.4488544,18446.535,33397.56,56396.43,40166.01,31478.85,21604.14,7040.655,-783.99,0.0
1789862286.448867,18451.53,33403.905,56403.134999999995,40172.76,31488.164999999997,21614.309999999998,7042.545,-777.4649999999999,0.0
1789862286.4540505,18442.035,33384.15,56422.215,40186.395,31493.52,21617.684999999998,7043.04,-775.755,0.0
1789862286.454068,18427.635,33374.295,56414.97,40182.57,31490.145,21614.175,7042.5,-782.145,0.0
1789862286.4627345,18425.475,33392.835,56413.935,40179.104999999996,31488.93,21611.969999999998,7039.44,-791.73,0.0
1789862286.462751,18428.219999999998,33391.26,56406.96,40189.68,31501.395,21620.745,7041.0599999999995,-801.18,0.0
1789862286.4648912,18434.61,33384.42,56416.095,40202.369999999995,31512.285,21633.704999999998,7055.054999999999,-789.39,0.0
1789862286.4649048,18437.895,33395.13,56438.189999999995,40209.255,31519.17,21645.719999999998,7069.005,-776.79,0.0
1789862286.4707296,18444.329999999998,33419.385,56452.905,40223.744999999995,31533.975,21656.024999999998,7071.84,-777.735,0.0
1789862286.470744,18447.434999999998,33440.67,56477.475,40250.88,31557.195,21672.675,7072.514999999999,-780.795,0.0
1789862286.470759,18459.225,33450.255,56479.005,40251.869999999995,31557.824999999997,21670.695,7061.445,-778.14,0.0
1789862286.4707649,18467.235,33444.63,56468.52,40237.47,31540.32,21649.32,7056.719999999999,-771.615,0.0
1789862286.4739985,18461.07,33417.854999999996,56437.875,40203.765,31506.704999999998,21622.005,7058.025,-772.785,0.0
1789862286.4740343,18446.985,33395.67,56425.275,40186.755,31487.309999999998,21605.895,7046.235,-786.78,0.0
1789862286.4823923,18458.91,33402.33,56423.564999999995,40182.21,31484.34,21604.274999999998,7032.96,-780.39,0.0
1789862286.482414,18467.055,33413.085,56419.965,40188.06,31489.11,21612.42,7042.139999999999,-769.77,0.0
1789862286.4824336,18457.559999999998,33408.135,56426.174999999996,40178.79,31481.91,21608.28,7053.165,-774.54,0.0
1789862286.4824424,18453.015,33401.88,56423.744999999995,40180.32,31489.469999999998,21613.005,7049.745,-778.68,0.0
1789862286.4861486,18456.075,33414.435,56444.174999999996,40200.705,31510.125,21628.53,7049.384999999999,-780.165,0.0
1789862286.4861715,18463.995,33436.26,56455.064999999995,40213.26,31524.03,21641.085,7058.969999999999,-775.755,0.0
1789862286.4892445,18460.755,33434.549999999996,56457.854999999996,40227.795,31535.145,21649.77,7063.785,-777.015,0.0
1789862286.4892724,18453.6,33426.63,56458.215,40230.63,31526.684999999998,21649.32,7063.83,-777.6,0.0
1789862286.493424,18454.635,33428.159999999996,56451.06,40203.854999999996,31508.145,21635.235,7058.205,-777.42,0.0
1789862286.493456,18461.204999999998,33430.365,56448.0,40192.11,31499.28,21622.094999999998,7052.535,-776.79,0.0
1789862286.5143414,18451.17,33410.475,56451.825,40203.494999999995,31506.66,21622.77,7048.9349999999995,-786.42,0.0
1789862286.5143757,18450.989999999998,33411.15,56444.805,40201.11,31501.26,21614.985,7042.679999999999,-788.22,0.0
1789862286.514396,18432.765,33387.93,56417.759999999995,40180.229999999996,31483.934999999998,21603.42,7036.5599999999995,-792.765,0.0
1789862286.514404,18423.36,33359.985,56390.759999999995,40163.76,31468.905,21592.485,7027.335,-793.305,0.0
1789862286.514413,18422.954999999998,33347.159999999996,56370.78,40137.299999999996,31453.965,21587.175,7032.42,-790.245,0.0
1789862286.5144205,18424.934999999998,33368.174999999996,56389.454999999994,40159.665,31478.219999999998,21602.43,7040.115,-787.635,0.0
1789862286.5144348,18414.405,33387.795,56405.744999999995,40168.034999999996,31482.585,21610.62,7042.95,-789.795,0.0
1789862286.5144422,18400.41,33380.46,56394.405,40155.21,31468.905,21604.184999999998,7042.094999999999,-794.52,0.0
1789862286.5167313,18416.385,33397.875,56420.009999999995,40179.24,31486.184999999998,21617.594999999998,7046.415,-790.9649999999999,0.0
1789862286.5167563,18445.274999999998,33423.255,56447.46,40205.835,31514.489999999998,21630.96,7045.605,-782.235,0.0
1789862286.5210333,18449.64,33410.07,56433.645,40212.81,31520.52,21623.13,7036.11,-790.605,0.0
1789862286.5210626,18443.34,33380.82,56413.034999999996,40211.01,31520.16,21621.329999999998,7037.955,-793.17,0.0
1789862286.524222,18447.704999999998,33389.1,56426.13,40182.75,31492.125,21609.855,7041.195,-782.415,0.0
1789862286.5242407,18464.579999999998,33422.58,56441.52,40162.95,31470.39,21597.93,7038.8099999999995,-775.125,0.0
1789862286.5278904,18449.145,33406.695,56426.445,40163.22,31470.704999999998,21595.77,7037.37,-784.395,0.0
1789862286.527907,18431.235,33401.385,56439.854999999996,40181.445,31486.23,21607.965,7040.5199999999995,-790.785,0.0
1789862286.5319235,18414.09,33395.085,56437.92,40181.76,31487.715,21613.274999999998,7045.514999999999,-791.28,0.0
1789862286.5319417,18417.329999999998,33390.0,56430.585,40178.159999999996,31484.789999999997,21612.735,7046.009999999999,-789.12,0.0
1789862286.5422,18431.594999999998,33393.195,56433.15,40184.729999999996,31490.01,21615.075,7046.19,-785.43,0.0
1789862286.5422337,18442.844999999998,33399.854999999996,56439.494999999995,40194.225,31498.155,21615.524999999998,7043.985,-782.73,0.0
1789862286.5422647,18453.735,33410.97,56451.195,40200.435,31507.245,21620.34,7044.075,-779.76,0.0
1789862286.5422795,18448.38,33413.13,56455.74,40203.72,31521.329999999998,21632.579999999998,7045.335,-784.305,0.0
1789862286.5422957,18438.434999999998,33414.165,56453.805,40207.275,31523.895,21629.745,7044.66,-789.975,0.0
1789862286.5423095,18440.505,33411.51,56445.255,40197.465,31508.954999999998,21618.54,7043.4,-799.8299999999999,0.0
1789862286.547764,18456.84,33428.159999999996,56455.335,40191.075,31493.43,21610.62,7038.405,-797.76,0.0
1789862286.5477788,18468.855,33432.119999999995,56454.165,40179.735,31481.64,21612.735,7040.205,-783.18,0.0
1789862286.550099,18462.825,33423.75,56445.795,40170.24,31476.285,21612.6,7039.485,-783.18,0.0
1789862286.5501232,18456.84,33423.705,56449.935,40178.52,31483.17,21614.355,7039.485,-785.295,0.0
1789862286.5542865,18454.05,33420.06,56444.895,40180.994999999995,31485.555,21612.105,7039.71,-783.36,0.0
1789862286.5543015,18446.715,33416.19,56445.704999999994,40187.97,31489.245,21612.735,7037.325,-789.885,0.0
1789862286.5623195,18445.364999999998,33428.61,56478.24,40242.735,31535.28,21646.26,7042.32,-793.305,0.0
1789862286.5623407,18431.505,33393.195,56446.244999999995,40232.655,31529.43,21640.094999999998,7044.57,-795.6899999999999,0.0
1789862286.5623617,18458.1,33420.735,56435.445,40134.915,31445.28,21589.875,7044.344999999999,-777.4649999999999,0.0
1789862286.5623717,18453.735,33415.604999999996,56432.61,40143.195,31452.434999999998,21586.995,7039.9349999999995,-780.165,0.0
1789862286.5663972,18443.925,33408.494999999995,56435.22,40163.805,31471.92,21595.454999999998,7035.884999999999,-789.3,0.0
1789862286.566428,18441.36,33418.485,56452.365,40183.56,31488.434999999998,21606.48,7033.679999999999,-796.005,0.0
1789862286.581264,18445.77,33420.6,56454.03,40186.935,31493.565,21613.5,7037.91,-789.93,0.0
1789862286.5812945,18445.995,33421.455,56454.479999999996,40186.71,31483.079999999998,21615.344999999998,7040.655,-788.355,0.0
1789862286.5813222,18450.45,33426.0,56462.085,40193.189999999995,31482.899999999998,21621.285,7049.16,-779.7149999999999,0.0
1789862286.5813346,18446.445,33423.165,56464.38,40191.57,31486.68,21619.665,7049.88,-783.045,0.0
1789862286.581349,18447.03,33425.369999999995,56467.079999999994,40194.045,31491.135,21621.735,7050.105,-785.79,0.0
1789862286.5813613,18450.45,33430.095,56464.47,40197.915,31493.385,21622.68,7048.08,-786.24,0.0
1789862286.582724,18451.844999999998,33430.229999999996,56458.935,40196.88,31492.26,21623.355,7047.719999999999,-783.765,0.0
1789862286.5827525,18444.375,33419.97,56452.68,40189.229999999996,31486.905,21617.415,7040.655,-791.1899999999999,0.0
1789862286.5877097,18436.635,33410.835,56446.11,40185.36,31482.719999999998,21612.329999999998,7036.065,-798.48,0.0
1789862286.5877385,18442.17,33416.955,56453.939999999995,40203.045,31493.745,21618.405,7036.29,-794.16,0.0
1789862286.590305,18446.355,33421.365,56455.424999999996,40209.119999999995,31497.614999999998,21621.555,7040.07,-788.805,0.0
1789862286.5903363,18445.905,33426.18,56456.775,40202.01,31492.395,21618.63,7041.6449999999995,-787.095,0.0
1789862286.59435,18438.66,33415.83,56453.625,40219.064999999995,31508.01,21625.38,7043.49,-793.395,0.0
1789862286.594385,18432.405,33386.13,56424.96,40204.71,31500.0,21620.295,7047.945,-792.3149999999999,0.0
1789862286.600714,18452.745,33420.33,56443.905,40187.205,31483.079999999998,21614.13,7043.759999999999,-791.595,0.0
1789862286.6007552,18458.864999999998,33437.61,56465.909999999996,40182.93,31471.425,21610.395,7047.719999999999,-788.67,0.0
1789862286.6030393,18455.309999999998,33442.74,56474.369999999995,40192.83,31486.949999999997,21616.875,7047.36,-790.785,0.0
1789862286.6030738,18439.785,33431.265,56470.5,40199.58,31494.285,21618.899999999998,7046.594999999999,-796.9499999999999,0.0
1789862286.606212,18429.3,33418.71,56469.96,40215.42,31510.53,21635.28,7054.65,-799.9649999999999,0.0
1789862286.6062455,18433.71,33421.545,56480.759999999995,40238.549999999996,31534.425,21659.085,7068.195,-791.28,0.0
1789862286.6111095,18444.42,33432.119999999995,56486.61,40244.22,31537.754999999997,21663.045,7072.605,-780.8399999999999,0.0
1789862286.6111455,18462.87,33443.28,56483.369999999995,40233.645,31522.184999999998,21650.175,7067.835,-769.365,0.0
1789862286.618389,18470.475,33444.945,56468.295,40210.604999999996,31492.35,21620.61,7051.005,-771.345,0.0
1789862286.6184063,18465.255,33440.625,56448.585,40184.865,31463.28,21592.934999999998,7035.255,-785.2049999999999,0.0
1789862286.6184244,18461.25,33436.71,56435.805,40169.835,31449.96,21582.0,7029.045,-790.0649999999999,0.0
1789862286.6184342,18456.344999999998,33428.07,56426.49,40188.015,31471.829999999998,21594.6,7027.29,-791.865,0.0
1789862286.6243923,18451.35,33432.705,56444.895,40215.284999999996,31495.41,21613.5,7029.405,-793.62,0.0
1789862286.6244073,18442.35,33417.405,56428.875,40189.68,31477.454999999998,21600.045,7031.34,-792.63,0.0
1789862286.6258905,18451.53,33420.24,56418.345,40160.205,31456.26,21581.145,7037.009999999999,-779.67,0.0
1789862286.6259081,18444.78,33419.61,56438.954999999994,40180.095,31469.805,21592.035,7040.969999999999,-781.245,0.0
1789862286.6350043,18438.975,33425.01,56449.485,40194.494999999995,31495.23,21614.219999999998,7045.335,-792.225,0.0
1789862286.6350205,18441.27,33421.005,56442.06,40196.61,31497.12,21617.684999999998,7049.205,-800.9549999999999,0.0
1789862286.6350355,18437.489999999998,33419.61,56445.93,40204.665,31485.149999999998,21621.735,7050.735,-800.145,0.0
1789862286.6350424,18427.274999999998,33428.385,56459.204999999994,40208.22,31476.375,21622.454999999998,7055.235,-789.165,0.0
1789862286.6404397,18422.1,33434.415,56470.365,40219.155,31486.995,21632.399999999998,7058.655,-783.135,0.0
1789862286.6404548,18427.635,33440.13,56475.81,40219.83,31499.864999999998,21639.059999999998,7061.13,-783.54,0.0
1789862286.643232,18455.985,33455.88,56476.17,40217.174999999996,31504.094999999998,21639.42,7059.105,-777.3299999999999,0.0
1789862286.6432436,18469.26,33447.42,56455.56,40204.935,31488.93,21621.329999999998,7047.045,-780.885,0.0
1789862286.6461773,18466.425,33439.86,56444.22,40188.555,31471.11,21602.16,7036.155,-787.545,0.0
1789862286.646189,18462.42,33427.17,56430.134999999995,40163.67,31448.745,21585.42,7026.344999999999,-784.845,0.0
1789862286.6517608,18460.44,33430.455,56437.965,40179.689999999995,31459.995,21594.51,7021.71,-782.235,0.0
1789862286.6517785,18457.29,33433.695,56440.259999999995,40186.71,31471.469999999998,21605.579999999998,7032.195,-780.03,0.0
1789862286.6588972,18460.71,33435.72,56441.924999999996,40183.784999999996,31468.905,21604.86,7042.7699999999995,-772.47,0.0
1789862286.6589298,18479.79,33463.979999999996,56468.25,40216.86,31495.05,21625.335,7046.594999999999,-763.785,0.0
1789862286.6602263,18462.42,33441.615,56458.619999999995,40218.345,31487.76,21610.35,7044.344999999999,-770.5799999999999,0.0
1789862286.6602595,18439.92,33413.22,56426.085,40159.395,31433.985,21567.87,7040.115,-780.3,0.0
1789862286.661517,18442.35,33414.299999999996,56423.07,40163.174999999996,31432.68,21570.434999999998,7045.38,-772.29,0.0
1789862286.661533,18426.915,33403.32,56414.79,40171.814999999995,31451.129999999997,21584.969999999998,7050.014999999999,-773.3249999999999,0.0
1789862286.6673827,18433.575,33425.685,56461.409999999996,40228.515,31521.329999999998,21636.045,7065.8099999999995,-774.855,0.0
1789862286.6673992,18449.64,33444.045,56488.68,40259.97,31550.895,21673.89,7074.36,-773.595,0.0
1789862286.6700363,18459.719999999998,33467.13,56507.759999999995,40278.51,31551.84,21689.46,7057.62,-772.0649999999999,0.0
1789862286.6700594,18470.52,33479.865,56504.204999999994,40267.26,31546.305,21677.579999999998,7000.0199999999995,-771.165,0.0
1789862286.6748757,18489.78,33489.945,56495.475,40236.57,31518.27,21648.735,6935.804999999999,-763.155,0.0
1789862286.6748953,18491.445,33487.2,56491.155,40219.335,31492.35,21613.68,6944.94,-765.63,0.0
1789862286.6773605,18460.575,33450.255,56457.765,40193.909999999996,31460.445,21568.545,7002.63,-784.89,0.0
1789862286.6773791,18447.39,33438.645,56446.2,40193.055,31437.855,21578.399999999998,7070.49,-788.76,0.0
1789862286.6820192,18448.92,33427.53,56426.265,40159.619999999995,31376.52,21560.76,7087.32,-775.0799999999999,0.0
1789862286.6820393,18455.85,33423.975,56414.159999999996,40130.64,31328.19,21486.059999999998,7074.719999999999,-765.0899999999999,0.0
1789862286.6860569,18461.295,33424.604999999996,56406.735,40113.09,31281.795,21441.239999999998,7047.63,-761.9399999999999,0.0
1789862286.6860836,18461.204999999998,33423.345,56405.52,40107.869999999995,31254.074999999997,21382.38,7018.155,-763.38,0.0
1789862286.6900938,18443.204999999998,33416.955,56417.939999999995,40149.494999999995,31355.055,21437.055,7008.4349999999995,-782.775,0.0
1789862286.6901195,18416.385,33411.195,56431.305,40202.64,31434.434999999998,21505.23,7008.255,-801.81,0.0
1789862286.6933374,18421.425,33425.729999999996,56454.615,40258.53,31485.195,21584.204999999998,6965.55,-794.43,0.0
1789862286.6933548,18438.75,33431.445,56458.079999999994,40278.96,31567.86,21705.524999999998,6963.57,-777.87,0.0
1789862286.6980348,18454.635,33450.93,56478.42,40266.765,31530.735,21696.48,7005.69,-772.245,0.0
1789862286.6982763,18444.555,33434.369999999995,56444.85,40199.625,31418.504999999997,21608.325,7075.44,-783.495,0.0
1789862286.7028549,18443.835,33436.26,56444.534999999996,40201.02,31462.515,21648.375,7014.6449999999995,-798.7049999999999,0.0
1789862286.7028792,18460.665,33457.185,56460.78,40208.354999999996,31453.92,21637.305,6924.87,-792.72,0.0
1789862286.7051969,18467.19,33455.07,56460.329999999994,40211.235,31421.969999999998,21603.059999999998,6952.815,-778.68,0.0
1789862286.70522,18444.059999999998,33453.585,56459.564999999995,40208.985,31433.219999999998,21540.465,7025.445,-783.495,0.0
1789862286.710215,18410.399999999998,33432.255,56439.18,40194.494999999995,31444.199999999997,21568.32,7033.86,-799.4699999999999,0.0
1789862286.7102373,18453.059999999998,33440.67,56457.99,40222.26,31463.594999999998,21550.77,7018.155,-770.76,0.0
1789862286.7134244,18482.579999999998,33450.93,56467.485,40232.025,31442.76,21531.105,7055.37,-749.475,0.0
1789862286.7134457,18459.945,33425.1,56434.454999999994,40247.505,31388.219999999998,21556.62,7078.455,-773.415,0.0
1789862286.7185264,18435.735,33399.494999999995,56367.36,40161.51,31223.43,21399.165,7053.705,-788.85,0.0
1789862286.718562,18435.96,33395.895,56340.81,40070.295,31098.105,21296.07,7072.785,-769.005,0.0
1789862286.724458,18431.1,33392.025,56353.905,40101.03,31230.18,21395.475,7055.054999999999,-768.42,0.0
1789862286.7244911,18416.79,33397.92,56387.07,40210.56,31381.469999999998,21446.055,7065.045,-779.895,0.0
1789862286.7313588,18443.835,33442.11,56422.979999999996,40242.375,31411.17,21496.545,7067.969999999999,-765.9,0.0
1789862286.7313952,18426.555,33441.615,56450.924999999996,40295.61,31588.605,21697.245,7001.28,-796.77,0.0
1789862286.7314217,18431.46,33447.825,56451.284999999996,40302.854999999996,31632.885,21824.504999999997,6913.215,-802.35,0.0
1789862286.7314324,18478.844999999998,33473.159999999996,56448.54,40244.085,31510.44,21690.899999999998,6962.804999999999,-754.8299999999999,0.0
1789862286.7342396,18480.105,33461.505,56411.595,40184.189999999995,31373.46,21545.145,7070.13,-745.515,0.0
1789862286.7342749,18436.68,33419.7,56374.74,40173.03,31375.754999999997,21532.995,7099.469999999999,-777.6899999999999,0.0
1789862286.7383146,18449.55,33450.659999999996,56423.7,40200.885,31409.01,21556.305,6955.155,-786.24,0.0
1789862286.738352,18477.809999999998,33480.54,56454.93,40246.47,31514.309999999998,21527.684999999998,6888.6449999999995,-770.49,0.0
1789862286.7414253,18488.565,33494.04,56467.71,40252.5,31474.98,21278.835,6947.054999999999,-754.11,0.0
1789862286.741446,18492.21,33504.345,56478.78,40235.49,31317.254999999997,21190.59,6966.764999999999,-750.87,0.0
1789862286.746205,18499.05,33525.81,56499.299999999996,40230.854999999996,31179.105,21309.93,6908.67,-761.22,0.0
1789862286.74622,18505.35,33529.409999999996,56488.32,40196.43,31035.6,21241.035,6888.599999999999,-743.4449999999999,0.0
1789862286.7505095,18478.395,33486.21,56453.895,40175.549999999996,31098.42,21258.675,6957.315,-737.4599999999999,0.0
1789862286.7505417,18429.12,33425.415,56412.494999999995,40173.255,31238.73,21390.885,6981.48,-768.42,0.0
1789862286.7533872,18404.82,33400.755,56390.174999999996,40177.034999999996,31303.98,21445.605,7044.12,-788.4449999999999,0.0
1789862286.7534173,18398.835,33406.92,56411.235,40204.845,31351.184999999998,21515.76,7147.889999999999,-786.1949999999999,0.0
1789862286.7582273,18384.57,33372.63,56351.384999999995,40103.865,31270.41,21529.079999999998,7158.105,-783.27,0.0
1789862286.7582612,18363.825,33380.505,56360.52,40126.095,31440.78,21668.85,7112.5199999999995,-805.77,0.0
1789862286.7621045,18373.905,33389.46,56367.45,40163.174999999996,31523.67,21674.565,7063.514999999999,-807.48,0.0
1789862286.762138,18427.32,33429.195,56418.795,40175.145,31435.829999999998,21622.41,6923.5199999999995,-796.8149999999999,0.0
1789862286.765807,18477.63,33462.63,56465.729999999996,40224.78,31429.62,21597.84,6844.634999999999,-776.115,0.0
1789862286.765841,18515.16,33469.515,56466.09,40228.47,31350.239999999998,21510.405,6889.724999999999,-755.4599999999999,0.0
1789862286.7748792,18494.46,33451.11,56440.034999999996,40190.625,31163.76,21183.975,7001.46,-762.165,0.0
1789862286.774914,18494.01,33469.515,56447.46,40157.055,31072.635,20971.485,6930.045,-771.48,0.0
1789862286.7749443,18443.295,33416.01,56424.375,40154.49,31195.98,21214.62,7006.455,-785.115,0.0
1789862286.7749598,18432.36,33381.135,56383.02,40129.92,31307.355,21423.059999999998,7109.91,-767.2049999999999,0.0
1789862286.7783332,18421.92,33375.6,56368.89,40192.064999999995,31487.309999999998,21625.785,7099.5599999999995,-786.6899999999999,0.0
1789862286.7783628,18416.52,33394.365,56402.909999999996,40270.994999999995,31595.445,21708.36,7103.835,-803.115,0.0
1789862286.7845364,18444.329999999998,33444.315,56469.195,40351.365,31655.789999999997,21629.969999999998,7069.815,-801.4499999999999,0.0
1789862286.784568,18448.29,33411.33,56401.47,40203.045,31436.82,21469.86,7049.835,-789.12,0.0
1789862286.790574,18450.63,33405.03,56391.884999999995,40105.26,31235.67,21457.35,7033.32,-781.155,0.0
1789862286.7906072,18449.19,33412.545,56411.729999999996,40141.034999999996,31281.03,21480.795,6985.3949999999995,-791.1,0.0
1789862286.7917287,18470.385,33438.645,56469.195,40236.21,31407.48,21469.364999999998,6985.9349999999995,-763.92,0.0
1789862286.7917464,18477.63,33444.45,56445.84,40187.115,31255.11,21298.005,7059.014999999999,-746.865,0.0
1789862286.7980542,18451.844999999998,33439.32,56436.255,40189.814999999995,31193.055,21206.204999999998,7009.65,-759.915,0.0
1789862286.7980783,18431.774999999998,33445.935,56454.795,40188.51,31289.579999999998,21401.1,6986.115,-790.56,0.0
1789862286.7982533,18444.465,33467.265,56505.78,40272.885,31461.57,21594.96,6979.545,-813.375,0.0
1789862286.7982664,18487.35,33465.51,56492.009999999995,40297.814999999995,31499.145,21461.445,6977.16,-768.105,0.0
1789862286.8020396,18506.745,33467.58,56457.54,40228.604999999996,31315.905,21329.055,6980.67,-741.42,0.0
1789862286.8020651,18484.965,33450.255,56432.475,40140.0,31245.164999999997,21356.774999999998,7024.094999999999,-752.355,0.0
1789862286.8061092,18443.655,33396.345,56379.329999999994,40099.994999999995,31393.8,21477.015,7130.115,-765.54,0.0
1789862286.8061435,18456.075,33442.155,56435.67,40217.445,31411.079999999998,21397.364999999998,6982.5599999999995,-792.0899999999999,0.0
1789862286.81042,18470.7,33451.244999999995,56443.68,40232.115,31406.76,21519.945,6950.835,-780.345,0.0
1789862286.8104494,18496.71,33454.845,56429.235,40177.439999999995,31351.86,21449.024999999998,6995.5199999999995,-743.805,0.0
1789862286.8142967,18492.795,33435.99,56391.795,40087.35,31212.539999999997,21194.82,7032.24,-733.095,0.0
1789862286.8143308,18488.969999999998,33438.15,56392.47,40099.86,31120.695,21072.87,6971.535,-743.04,0.0
1789862286.8183165,18468.27,33440.445,56426.895,40170.33,31207.23,21218.175,6943.679999999999,-768.285,0.0
1789862286.8183494,18435.6,33416.595,56416.86,40178.655,31340.204999999998,21378.42,6954.48,-772.74,0.0
1789862286.8222957,18423.585,33432.345,56455.29,40255.155,31474.44,21567.96,6898.005,-771.795,0.0
1789862286.8223212,18462.465,33495.435,56517.075,40261.994999999995,31387.86,21420.405,6894.8099999999995,-766.7099999999999,0.0
1789862286.8273365,18558.719999999998,33591.33,56588.67,40293.72,31314.51,21149.954999999998,6936.4349999999995,-724.995,0.0
1789862286.8273635,18581.535,33590.07,56565.81,40257.045,31218.3,21014.774999999998,6939.36,-723.735,0.0
1789862286.8294773,18549.585,33561.18,56518.47,40216.049999999996,31377.015,21274.065,6831.134999999999,-790.605,0.0
1789862286.8295088,18470.88,33433.784999999996,56374.11,40078.71,31572.675,21478.005,6959.34,-809.055,0.0
1789862286.8374865,18427.184999999998,33360.659999999996,56300.49,40057.784999999996,31444.559999999998,21417.075,7058.925,-801.765,0.0
1789862286.837511,18402.21,33327.225,56299.59,40183.784999999996,31280.67,21414.329999999998,7132.23,-801.5849999999999,0.0
1789862286.838849,18412.335,33317.64,56285.909999999996,40049.325,31301.82,21447.899999999998,7134.974999999999,-782.64,0.0
1789862286.8388681,18436.905,33349.994999999995,56338.604999999996,40031.28,31442.265,21545.774999999998,7094.5199999999995,-778.725,0.0
1789862286.8424668,18486.585,33427.979999999996,56438.369999999995,40242.33,31328.594999999998,21451.05,7056.36,-760.095,0.0
1789862286.8424861,18514.079999999998,33452.909999999996,56438.28,40226.715,31281.03,21366.495,7010.099999999999,-744.345,0.0
1789862286.8455188,18582.885,33580.619999999995,56550.284999999996,40271.715,31322.07,21302.684999999998,6931.035,-726.39,0.0
1789862286.8455422,18604.844999999998,33625.26,56630.564999999995,40358.25,31321.71,21184.559999999998,6924.105,-709.8299999999999,0.0
1789862286.8501298,18525.96,33534.945,56544.299999999996,40326.885,31270.635,21073.77,6953.985,-754.02,0.0
1789862286.850162,18445.995,33432.93,56428.2,40241.52,31332.645,21255.48,7026.615,-790.92,0.0
1789862286.8542423,18432.045,33380.369999999995,56401.2,40223.295,31532.67,21608.91,7136.82,-755.685,0.0
1789862286.854274,18440.864999999998,33405.435,56423.835,40238.595,31570.155,21644.055,7099.785,-746.64,0.0
1789862286.8631272,18476.82,33447.06,56438.189999999995,40251.284999999996,31504.77,21648.51,7130.474999999999,-730.125,0.0
1789862286.8631527,18577.305,33533.865,56506.185,40283.505,31388.355,21631.77,7074.405,-679.365,0.0
1789862286.8670754,18581.445,33505.2,56488.77,40190.805,31227.75,21470.445,6959.295,-698.13,0.0
1789862286.8670976,18517.41,33451.424999999996,56453.49,40145.895,31202.594999999998,21258.045,6965.28,-738.18,0.0
1789862286.8676984,18541.485,33480.18,56480.985,40222.845,31317.254999999997,21213.36,6931.485,-708.7049999999999,0.0
1789862286.8677125,18517.454999999998,33526.26,56547.9,40349.655,31543.695,21605.13,6944.759999999999,-708.165,0.0
1789862286.8701396,18361.35,33440.625,56516.939999999995,40363.965,31614.93,21701.43,7156.259999999999,-772.92,0.0
1789862286.8701613,18308.745,33408.9,56529.81,40400.82,31548.824999999997,21616.02,7262.46,-807.3,0.0
1789862286.8742552,18440.505,33484.994999999995,56581.604999999996,40445.235,31582.844999999998,21636.045,7162.605,-747.3149999999999,0.0
1789862286.8742812,18526.86,33528.06,56562.255,40365.45,31484.789999999997,21480.885,7027.695,-749.925,0.0
1789862286.8787472,18567.719999999998,33524.369999999995,56513.564999999995,40310.28,31448.699999999997,21442.32,6960.599999999999,-737.865,0.0
1789862286.8787806,18611.91,33530.085,56513.295,40312.034999999996,31419.629999999997,21378.555,6873.929999999999,-684.675,0.0
1789862286.8847551,18575.505,33494.22,56463.345,40258.755,31364.82,21252.375,6935.67,-678.555,0.0
1789862286.8847897,18502.785,33421.635,56399.579999999994,40205.115,31393.754999999997,21390.12,7047.764999999999,-719.8199999999999,0.0
1789862286.892275,18426.96,33340.455,56327.759999999995,40120.83,31369.454999999998,21463.695,7120.035,-770.76,0.0
1789862286.8923025,18434.385,33338.159999999996,56310.659999999996,40079.7,31345.245,21341.655,7097.264999999999,-759.87,0.0
1789862286.8923283,18470.385,33389.685,56367.945,40074.885,31363.199999999997,21406.005,7035.4349999999995,-738.99,0.0
1789862286.8923423,18507.015,33463.26,56530.799999999996,40403.25,31422.78,21435.434999999998,6984.585,-731.2049999999999,0.0
1789862286.892953,18541.485,33476.354999999996,56502.045,40351.185,31344.885,21433.68,6970.724999999999,-703.035,0.0
1789862286.89298,18490.59,33433.784999999996,56433.06,40247.595,31312.035,21218.175,7068.0599999999995,-733.68,0.0
1789862286.8981884,18505.934999999998,33447.825,56471.805,40298.985,31452.57,21511.125,7110.764999999999,-729.3149999999999,0.0
1789862286.8982215,18526.725,33452.01,56477.835,40286.52,31449.6,21587.04,7053.165,-716.5799999999999,0.0
1789862286.902856,18521.82,33399.765,56447.369999999995,40245.885,31293.045,21417.704999999998,7018.155,-712.755,0.0
1789862286.902889,18545.175,33400.935,56468.97,40332.555,31214.52,21133.62,6873.4349999999995,-712.395,0.0
1789862286.905969,18502.649999999998,33368.76,56426.354999999996,40305.555,31246.469999999998,21023.64,6840.63,-750.9599999999999,0.0
1789862286.9060063,18471.285,33410.88,56425.005,40398.119999999995,31396.14,21247.425,6917.3099999999995,-780.12,0.0
1789862286.910202,18461.475,33494.895,56451.06,40287.195,31334.309999999998,21506.219999999998,7046.594999999999,-759.645,0.0
1789862286.9102287,18418.635,33419.295,56392.784999999996,40162.185,31402.53,21482.055,7095.69,-784.665,0.0
1789862286.9141524,18466.785,33397.155,56429.28,40236.119999999995,31401.449999999997,21383.82,7112.384999999999,-723.3299999999999,0.0
1789862286.9141848,18525.87,33435.72,56524.454999999994,40389.57,31436.73,21355.695,7070.94,-692.235,0.0
1789862286.9219794,18477.225,33335.82,56497.545,40412.159999999996,31424.94,21487.635,7080.525,-724.05,0.0
1789862286.922008,18378.18,33201.045,56403.134999999995,40365.405,31473.765,21620.024999999998,7112.565,-782.37,0.0
1789862286.9234605,18396.405,33253.38,56387.384999999995,40326.659999999996,31448.655,21599.145,7096.005,-761.7149999999999,0.0
1789862286.9234884,18503.415,33538.229999999996,56517.884999999995,40322.88,31414.004999999997,21397.5,7017.84,-688.5,0.0
1789862286.928075,18545.535,33630.57,56627.009999999995,40369.14,31429.53,21444.48,6994.44,-635.04,0.0
1789862286.9281018,18475.11,33578.145,56693.88,40536.36,31593.285,21658.77,7000.29,-688.185,0.0
1789862286.9287956,18423.54,33542.055,56682.494999999995,40550.22,31618.934999999998,21606.614999999998,7088.13,-768.1949999999999,0.0
1789862286.928813,18465.795,33611.985,56726.369999999995,40542.795,31585.949999999997,21526.695,6991.245,-807.0749999999999,0.0
1789862286.9398715,18539.684999999998,33596.369999999995,56654.28,40463.415,31545.045,21550.815,6982.965,-746.73,0.0
1789862286.939901,18490.32,33445.935,56444.67,40231.53,31326.344999999998,21389.67,7074.855,-742.86,0.0
1789862286.9399297,18442.62,33307.335,56259.09,40068.81,31178.34,21297.195,7086.554999999999,-740.3399999999999,0.0
1789862286.9399457,18493.02,33377.13,56368.485,40212.854999999996,31269.42,21366.765,7004.429999999999,-698.49,0.0
1789862286.9423373,18509.085,33429.284999999996,56430.18,40266.99,31283.55,21286.755,6974.235,-697.635,0.0
1789862286.9423652,18467.55,33413.895,56431.979999999996,40295.25,31334.67,21463.245,7075.8,-714.645,0.0
1789862286.9461925,18500.309999999998,33443.955,56459.295,40333.095,31297.364999999998,21428.28,7078.32,-697.9499999999999,0.0
1789862286.9462097,18540.0,33526.979999999996,56561.354999999996,40444.155,31296.6,21358.395,7055.415,-728.1,0.0
1789862286.9516013,18613.305,33615.9,56668.994999999995,40556.159999999996,31490.1,21442.77,7068.78,-689.67,0.0
1789862286.951652,18617.085,33623.055,56708.954999999994,40593.6,31672.844999999998,21729.645,7076.5199999999995,-649.485,0.0
1789862286.955218,18511.2,33505.2,56583.27,40483.755,31651.965,21656.114999999998,7082.505,-703.305,0.0
1789862286.9552543,18456.075,33418.395,56490.795,40376.385,31488.885,21624.3,7100.6849999999995,-755.4599999999999,0.0
1789862286.963061,18461.88,33420.06,56474.46,40368.195,31456.934999999998,21580.785,7038.134999999999,-764.8199999999999,0.0
1789862286.9630866,18423.899999999998,33368.625,56383.875,40293.09,31397.219999999998,21422.295,7068.0599999999995,-757.62,0.0
1789862286.9631104,18410.67,33267.284999999996,56321.775,40292.1,31369.23,21379.454999999998,7050.465,-761.895,0.0
1789862286.9631228,18466.065,33135.345,56305.485,40334.67,31326.434999999998,21395.204999999998,6891.705,-727.29,0.0
1789862286.9658306,18502.155,33101.729999999996,56328.345,40387.229999999996,31432.14,21522.105,6938.91,-656.37,0.0
1789862286.9658577,18496.8,33166.755,56294.549999999996,40288.409999999996,31451.355,21439.079999999998,7046.55,-649.0799999999999,0.0
1789862286.9745295,18404.055,33429.24,56381.579999999994,40240.17,31345.559999999998,21434.445,7118.46,-750.1949999999999,0.0
1789862286.974558,18349.515,33440.805,56466.72,40307.805,31315.41,21435.434999999998,7129.17,-812.745,0.0
1789862286.9745836,18377.235,33328.034999999996,56389.095,40322.744999999995,31310.46,21401.28,7070.355,-775.26,0.0
1789862286.9745958,18390.329999999998,33422.805,56392.155,40334.49,31294.934999999998,21444.12,7047.179999999999,-763.8299999999999,0.0
1789862286.9806683,18468.809999999998,33525.36,56489.534999999996,40304.655,31307.94,21480.93,7054.065,-711.9449999999999,0.0
1789862286.9807043,18536.535,33583.994999999995,56599.11,40332.195,31476.329999999998,21538.575,7008.57,-675.765,0.0
1789862286.982726,18534.105,33568.11,56632.409999999996,40460.49,31568.085,21534.344999999998,6951.0599999999995,-697.77,0.0
1789862286.9827526,18488.565,33513.435,56585.61,40470.705,31474.035,21437.1,6910.245,-743.76,0.0
1789862286.9863706,18430.695,33438.96,56456.595,40320.0,31339.53,21414.645,6974.46,-789.5699999999999,0.0
1789862286.986399,18448.335,33408.72,56378.79,40208.805,31202.91,21300.434999999998,7066.259999999999,-763.38,0.0
1789862286.9914412,18428.445,33369.21,56339.729999999996,40198.994999999995,31266.765,21406.77,7096.634999999999,-754.92,0.0
1789862286.9914718,18432.18,33370.065,56347.829999999994,40213.08,31297.23,21444.03,7084.485,-736.38,0.0
1789862287.0039225,18424.934999999998,33367.545,56414.564999999995,40305.104999999996,31339.035,21445.559999999998,7085.25,-735.885,0.0
1789862287.0039403,18427.14,33390.9,56500.784999999996,40411.53,31445.82,21522.96,7113.33,-762.525,0.0
1789862287.0039563,18442.395,33474.195,56585.744999999995,40557.689999999995,31569.57,21670.02,7143.884999999999,-802.665,0.0
1789862287.003964,18488.969999999998,33545.744999999995,56636.009999999995,40593.6,31545.18,21666.735,7053.165,-758.0699999999999,0.0
1789862287.003972,18529.11,33554.34,56583.9,40493.385,31396.41,21340.98,6885.9,-716.22,0.0
1789862287.0039792,18503.235,33469.56,56460.509999999995,40353.795,31349.07,21240.945,6976.53,-707.13,0.0
1789862287.0076935,18439.245,33383.97,56385.81,40220.865,31375.079999999998,21543.344999999998,7036.695,-726.165,0.0
1789862287.0077167,18449.1,33418.485,56443.905,40326.435,31426.785,21492.63,6993.179999999999,-738.9449999999999,0.0
1789862287.0129924,18445.995,33409.485,56426.265,40353.479999999996,31382.684999999998,21458.16,7061.715,-731.925,0.0
1789862287.013019,18428.13,33401.79,56392.38,40282.56,31336.155,21495.105,7087.59,-750.555,0.0
1789862287.0180726,18425.34,33371.01,56364.435,40255.064999999995,31286.969999999998,21455.01,7080.3,-733.365,0.0
1789862287.0181096,18447.39,33385.229999999996,56383.92,40253.085,31289.265,21385.305,6976.44,-718.9649999999999,0.0
1789862287.0244603,18457.559999999998,33420.735,56473.47,40381.695,31406.445,21465.27,6995.5199999999995,-709.9649999999999,0.0
1789862287.0244875,18464.715,33448.815,56515.95,40431.33,31468.094999999998,21567.87,7081.605,-694.98,0.0
1789862287.024512,18467.055,33478.604999999996,56545.155,40469.31,31473.675,21540.329999999998,7099.469999999999,-703.755,0.0
1789862287.0245235,18424.98,33446.835,56534.445,40488.255,31432.545,21433.5,7073.054999999999,-736.9649999999999,0.0
1789862287.0272312,18420.975,33520.455,56611.215,40530.375,31474.485,21501.135,7075.53,-736.8299999999999,0.0
1789862287.027253,18445.905,33583.86,56686.005,40613.174999999996,31585.004999999997,21483.719999999998,7069.86,-743.5799999999999,0.0
1789862287.029996,18385.649999999998,33442.604999999996,56553.57,40512.869999999995,31619.295,21745.665,7108.11,-780.435,0.0
1789862287.030018,18451.26,33455.52,56512.979999999996,40409.955,31503.015,21590.28,7012.9349999999995,-737.235,0.0
1789862287.0335724,18463.005,33436.305,56432.61,40287.735,31284.719999999998,21366.045,6956.594999999999,-734.67,0.0
1789862287.0335927,18504.18,33452.46,56437.604999999996,40296.645,31279.094999999998,21402.855,7016.8949999999995,-697.5899999999999,0.0
1789862287.038411,18542.655,33456.645,56402.505,40264.695,31342.949999999997,21505.364999999998,7052.219999999999,-657.9,0.0
1789862287.0384328,18498.195,33372.09,56351.159999999996,40300.11,31427.82,21584.565,7092.585,-682.74,0.0
1789862287.0431936,18410.219999999998,33265.755,56319.975,40317.84,31371.164999999997,21516.57,7097.804999999999,-732.015,0.0
1789862287.043219,18368.325,33200.369999999995,56359.979999999996,40339.215,31380.614999999998,21505.094999999998,7100.37,-732.555,0.0
1789862287.0463104,18274.184999999998,33150.284999999996,56411.055,40453.56,31492.574999999997,21593.34,7149.375,-750.78,0.0
1789862287.0463247,18316.8,33285.42,56508.57,40589.46,31592.16,21601.125,7073.775,-751.77,0.0
1789862287.051293,18414.18,33552.945,56556.36,40535.145,31556.385,21594.87,6985.844999999999,-751.905,0.0
1789862287.051306,18492.885,33685.11,56582.28,40383.18,31385.52,21478.094999999998,7039.755,-742.365,0.0
1789862287.0555303,18505.844999999998,33567.705,56518.064999999995,40333.635,31358.745,21520.26,7142.849999999999,-742.725,0.0
1789862287.0555432,18521.505,33553.845,56561.265,40448.07,31469.085,21606.66,7098.12,-759.3299999999999,0.0
1789862287.0582016,18490.77,33498.585,56512.845,40434.255,31436.414999999997,21513.375,7079.804999999999,-758.115,0.0
1789862287.0582132,18482.445,33499.53,56504.564999999995,40430.61,31457.07,21518.37,7059.33,-742.185,0.0
1789862287.0621786,18501.57,33506.46,56497.68,40430.744999999995,31457.114999999998,21554.01,7019.054999999999,-693.54,0.0
1789862287.0621908,18446.309999999998,33425.145,56402.505,40323.24,31340.61,21526.605,7068.465,-710.9549999999999,0.0
1789862287.065474,18471.825,33442.02,56395.845,40273.424999999996,31341.78,21502.035,7028.37,-717.3,0.0
1789862287.065487,18531.719999999998,33498.765,56445.255,40287.33,31349.43,21417.344999999998,6968.835,-682.47,0.0
1789862287.0721667,18502.649999999998,33485.58,56444.715,40306.095,31396.5,21442.545,6994.71,-707.04,0.0
1789862287.0721793,18496.844999999998,33495.795,56472.884999999995,40332.96,31429.035,21490.605,7050.285,-705.105,0.0
1789862287.0759072,18502.739999999998,33478.92,56445.435,40288.95,31299.254999999997,21328.469999999998,7055.28,-692.37,0.0
1789862287.075919,18439.875,33412.68,56372.445,40253.354999999996,31289.76,21470.13,7054.875,-741.9599999999999,0.0
1789862287.078715,18440.91,33429.465,56392.92,40291.965,31311.315,21459.059999999998,7030.53,-740.52,0.0
1789862287.0787284,18470.475,33462.945,56431.485,40322.07,31372.245,21499.605,7079.175,-711.36,0.0
1789862287.0826378,18469.395,33486.345,56488.14,40389.75,31433.579999999998,21507.57,7096.5,-730.53,0.0
1789862287.0826492,18438.93,33448.455,56473.56,40400.415,31470.614999999998,21556.485,7070.219999999999,-753.93,0.0
1789862287.086086,18406.035,33403.68,56446.74,40405.635,31511.024999999998,21671.91,7105.094999999999,-757.53,0.0
1789862287.0860956,18454.5,33456.555,56466.99,40371.525,31394.385,21495.42,7037.91,-727.65,0.0
1789862287.0897048,18479.295,33483.645,56471.354999999996,40398.03,31368.285,21434.535,7023.6449999999995,-707.9399999999999,0.0
1789862287.0897183,18445.95,33440.49,56425.86,40357.26,31407.3,21416.625,7046.73,-724.41,0.0
1789862287.0940895,18457.38,33430.905,56433.645,40370.354999999996,31463.82,21517.559999999998,7032.014999999999,-714.4649999999999,0.0
1789862287.094107,18478.665,33414.39,56460.104999999996,40410.045,31488.975,21621.059999999998,7066.44,-691.6949999999999,0.0
1789862287.097952,18411.93,33339.284999999996,56416.725,40408.875,31464.27,21554.325,7106.264999999999,-742.14,0.0
1789862287.097962,18399.825,33379.47,56410.155,40363.784999999996,31388.355,21525.21,7110.855,-759.87,0.0
1789862287.1013591,18429.344999999998,33486.03,56453.895,40336.695,31363.92,21583.98,7095.42,-759.3299999999999,0.0
1789862287.1013813,18425.43,33495.659999999996,56463.975,40288.86,31389.074999999997,21538.395,7070.8949999999995,-758.61,0.0
1789862287.1061769,18437.399999999998,33473.159999999996,56468.61,40314.825,31461.57,21539.565,7079.085,-742.005,0.0
1789862287.1061997,18437.445,33458.4,56480.085,40361.445,31446.405,21621.825,7078.86,-731.655,0.0
1789862287.110172,18455.265,33494.715,56518.695,40421.564999999995,31438.98,21614.535,7060.365,-719.28,0.0
1789862287.1101985,18476.594999999998,33526.26,56525.67,40409.01,31405.905,21398.85,7042.32,-707.895,0.0
1789862287.1168375,18478.44,33524.369999999995,56527.335,40417.515,31443.48,21525.344999999998,7060.23,-709.92,0.0
1789862287.116862,18484.11,33495.525,56508.03,40391.549999999996,31414.77,21473.055,7130.5199999999995,-692.865,0.0
1789862287.117396,18493.469999999998,33496.02,56533.68,40427.64,31562.774999999998,21798.36,7095.599999999999,-700.92,0.0
1789862287.1174133,18516.87,33524.46,56549.025,40429.89,31497.93,21634.379999999997,7064.73,-688.3199999999999,0.0
1789862287.1223145,18439.29,33422.22,56446.695,40378.814999999995,31446.315,21582.405,7102.62,-722.79,0.0
1789862287.1223352,18393.57,33280.38,56347.829999999994,40281.479999999996,31394.34,21577.454999999998,7129.485,-725.0849999999999,0.0
1789862287.125425,18452.114999999998,33257.115,56379.555,40351.409999999996,31469.805,21593.52,7049.61,-687.105,0.0
1789862287.1254556,18514.844999999998,33371.055,56435.805,40442.085,31537.485,21662.504999999997,7022.745,-669.105,0.0
1789862287.1304777,18499.184999999998,33509.744999999995,56434.229999999996,40422.465,31523.895,21643.469999999998,7055.235,-697.995,0.0
1789862287.1305025,18402.795,33577.335,56476.305,40328.01,31412.61,21493.844999999998,7053.705,-763.47,0.0
1789862287.1344664,18402.885,33511.14,56492.189999999995,40346.28,31398.704999999998,21473.055,7069.679999999999,-744.7049999999999,0.0
1789862287.1344953,18434.25,33486.659999999996,56486.655,40346.955,31357.71,21440.25,7016.535,-737.415,0.0
1789862287.1390064,18469.17,33562.665,56549.564999999995,40359.104999999996,31398.12,21471.344999999998,6959.07,-758.79,0.0
1789862287.1390212,18493.965,33578.369999999995,56567.159999999996,40410.585,31546.574999999997,21621.105,7027.469999999999,-735.795,0.0
1789862287.1419291,18450.27,33427.979999999996,56390.85,40329.63,31505.355,21600.315,7154.505,-727.875,0.0
1789862287.1419427,18441.27,33346.08,56297.52,40228.155,31353.614999999998,21565.395,7134.615,-718.875,0.0
1789862287.1458683,18474.66,33471.27,56402.009999999995,40243.545,31335.344999999998,21522.195,7078.23,-717.615,0.0
1789862287.1459002,18475.695,33520.86,56458.71,40274.729999999996,31359.555,21535.92,7099.5599999999995,-729.0899999999999,0.0
1789862287.1553123,18440.415,33482.655,56469.24,40338.27,31430.879999999997,21586.905,7102.17,-738.045,0.0
1789862287.1553304,18417.195,33490.755,56491.92,40369.275,31451.445,21593.565,7102.08,-737.64,0.0
1789862287.155348,18428.399999999998,33519.869999999995,56535.435,40380.615,31447.53,21595.95,7065.8099999999995,-734.85,0.0
1789862287.155357,18459.719999999998,33525.63,56526.57,40393.08,31461.03,21567.375,7057.125,-721.665,0.0
1789862287.1611469,18474.704999999998,33534.225,56524.5,40419.674999999996,31453.199999999997,21556.079999999998,7095.465,-724.14,0.0
1789862287.161173,18492.03,33550.92,56537.235,40444.604999999996,31453.559999999998,21556.575,7093.71,-729.18,0.0
1789862287.161682,18506.88,33556.005,56555.369999999995,40432.005,31486.995,21651.12,7145.46,-703.305,0.0
1789862287.161688,18474.255,33548.354999999996,56567.295,40459.049999999996,31536.405,21693.78,7147.17,-740.295,0.0
1789862287.166112,18469.035,33515.64,56499.255,40376.744999999995,31456.485,21578.175,7126.5599999999995,-736.47,0.0
1789862287.1661289,18454.274999999998,33467.58,56432.61,40316.985,31432.094999999998,21482.91,7063.92,-725.895,0.0
1789862287.1688387,18384.885,33422.895,56406.645,40333.455,31485.824999999997,21576.285,7057.98,-750.6899999999999,0.0
1789862287.1688504,18368.37,33395.49,56387.88,40300.155,31452.93,21627.765,7078.7699999999995,-753.0749999999999,0.0
1789862287.1738632,18432.45,33367.994999999995,56316.915,40245.795,31383.045,21546.765,7082.1449999999995,-696.915,0.0
1789862287.1738756,18446.085,33402.24,56368.034999999996,40263.165,31370.309999999998,21514.364999999998,7096.32,-699.3,0.0
1789862287.177421,18456.885,33484.635,56495.34,40386.33,31484.295,21595.364999999998,7107.48,-711.9449999999999,0.0
1789862287.1774468,18545.805,33602.265,56643.795,40565.61,31672.574999999997,21781.62,7038.9,-673.515,0.0
1789862287.1834605,18560.835,33596.01,56640.284999999996,40527.585,31642.469999999998,21729.329999999998,7062.165,-662.76,0.0
1789862287.183488,18522.899999999998,33580.619999999995,56622.015,40479.075,31523.309999999998,21481.605,7086.735,-680.7149999999999,0.0
1789862287.186109,18486.855,33529.77,56501.685,40347.27,31363.11,21367.89,7042.005,-709.785,0.0
1789862287.1861296,18406.26,33443.235,56407.994999999995,40302.72,31418.145,21683.835,7087.094999999999,-777.645,0.0
1789862287.1917827,18397.53,33469.83,56444.04,40348.799999999996,31502.925,21710.61,7132.139999999999,-769.5899999999999,0.0
1789862287.1918056,18411.39,33437.97,56420.685,40351.455,31515.48,21638.024999999998,7108.11,-737.37,0.0
1789862287.1951969,18480.195,33443.28,56416.545,40342.365,31455.27,21506.579999999998,7066.44,-684.765,0.0
1789862287.1952467,18517.545,33473.385,56407.32,40308.525,31454.91,21601.844999999998,7004.16,-677.97,0.0
1789862287.2040446,18624.96,33628.365,56553.884999999995,40440.465,31574.114999999998,21729.825,7012.08,-629.37,0.0
1789862287.2040665,18661.905,33674.354999999996,56611.259999999995,40474.575,31531.68,21662.594999999998,7032.42,-590.22,0.0
1789862287.2067783,18524.61,33548.085,56486.744999999995,40370.22,31445.55,21605.309999999998,7104.87,-677.61,0.0
1789862287.2068324,18391.68,33442.604999999996,56394.9,40334.715,31405.86,21552.885,7166.5199999999995,-751.8149999999999,0.0
1789862287.2068636,18412.649999999998,33498.72,56483.325,40390.155,31429.17,21600.18,7128.495,-755.145,0.0
1789862287.2068768,18449.01,33487.38,56464.65,40315.365,31386.69,21518.055,7111.3949999999995,-724.3199999999999,0.0
1789862287.2126343,18430.605,33408.72,56350.619999999995,40170.15,31335.12,21456.0,7079.264999999999,-730.845,0.0
1789862287.212662,18460.755,33423.795,56370.15,40216.905,31371.344999999998,21562.875,7097.535,-707.355,0.0
1789862287.2142763,18490.77,33499.395,56469.284999999996,40359.915,31460.265,21598.739999999998,7102.665,-701.9549999999999,0.0
1789862287.2143056,18489.96,33506.909999999996,56499.84,40431.645,31535.37,21644.37,7091.91,-692.865,0.0
1789862287.2182884,18462.195,33461.595,56448.945,40366.08,31433.985,21546.63,7061.8949999999995,-713.61,0.0
1789862287.2183166,18442.305,33444.494999999995,56409.03,40299.03,31354.605,21471.075,7051.1849999999995,-742.905,0.0
1789862287.226692,18492.704999999998,33547.5,56508.93,40373.595,31389.164999999997,21431.295,7017.389999999999,-725.265,0.0
1789862287.2267184,18452.43,33524.909999999996,56547.63,40477.005,31524.3,21645.945,7097.535,-730.2149999999999,0.0
1789862287.2389674,18408.78,33445.26,56481.21,40455.045,31583.835,21788.145,7213.679999999999,-750.24,0.0
1789862287.2389953,18436.5,33430.815,56480.985,40466.744999999995,31617.045,21815.684999999998,7240.905,-746.64,0.0
1789862287.2390249,18441.989999999998,33462.72,56534.265,40497.479999999996,31637.835,21779.01,7220.429999999999,-717.795,0.0
1789862287.2390363,18417.239999999998,33440.85,56472.75,40470.21,31617.719999999998,21731.535,7160.625,-719.145,0.0
1789862287.2390609,18442.305,33526.53,56470.905,40398.795,31507.92,21674.745,7094.429999999999,-730.125,0.0
1789862287.23908,18502.785,33595.11,56522.204999999994,40347.045,31372.469999999998,21538.8,7054.83,-710.055,0.0
1789862287.25406,18526.274999999998,33549.21,56469.735,40321.395,31387.41,21493.26,7019.054999999999,-689.355,0.0
1789862287.2540913,18503.954999999998,33553.89,56455.604999999996,40298.31,31427.55,21507.57,7023.78,-712.935,0.0
1789862287.254158,18505.8,33512.534999999996,56415.6,40303.26,31435.425,21520.844999999998,7042.05,-708.5699999999999,0.0
1789862287.2541735,18493.829999999998,33487.38,56404.575,40297.455,31448.024999999998,21557.43,7097.94,-714.06,0.0
1789862287.2541928,18489.42,33476.67,56403.9,40290.659999999996,31451.715,21609.765,7077.195,-717.48,0.0
1789862287.254213,18517.68,33506.055,56460.869999999995,40354.11,31480.785,21651.66,7069.905,-692.73,0.0
1789862287.2575204,18513.45,33519.06,56501.505,40386.015,31482.855,21568.05,7125.84,-688.68,0.0
1789862287.2575488,18465.885,33471.135,56462.895,40355.775,31474.934999999998,21628.8,7158.0599999999995,-720.0899999999999,0.0
1789862287.257589,18475.11,33501.78,56447.64,40327.965,31437.135,21601.485,7111.9349999999995,-715.8149999999999,0.0
1789862287.2576015,18531.36,33593.22,56512.35,40393.305,31524.795,21652.11,7078.815,-689.13,0.0
1789862287.2588537,18553.77,33604.74,56547.63,40440.735,31594.635,21719.16,7061.13,-665.595,0.0
1789862287.258878,18518.579999999998,33557.22,56530.395,40425.659999999996,31498.245,21645.899999999998,7031.565,-683.28,0.0
1789862287.2636757,18518.219999999998,33545.835,56531.88,40431.465,31472.73,21561.434999999998,7060.23,-681.39,0.0
1789862287.2637053,18457.2,33482.61,56499.119999999995,40411.485,31496.895,21596.489999999998,7115.715,-721.89,0.0
1789862287.2667017,18415.395,33412.59,56379.825,40293.27,31421.969999999998,21522.195,7154.955,-755.8199999999999,0.0
1789862287.266723,18486.585,33503.67,56392.829999999994,40266.945,31432.32,21607.469999999998,7125.84,-722.6999999999999,0.0
1789862287.2711172,18537.885,33585.165,56499.975,40356.945,31486.995,21662.325,7060.815,-697.095,0.0
1789862287.271144,18503.235,33534.225,56478.509999999995,40377.104999999996,31481.82,21688.829999999998,7119.675,-698.625,0.0
1789862287.2739627,18503.684999999998,33511.275,56473.695,40368.06,31474.98,21607.785,7116.66,-689.67,0.0
1789862287.2739828,18490.05,33495.435,56450.97,40358.7,31491.405,21569.309999999998,7104.825,-709.515,0.0
1789862287.277468,18459.585,33489.315,56454.435,40386.104999999996,31481.82,21596.489999999998,7134.974999999999,-701.3249999999999,0.0
1789862287.277501,18442.755,33531.479999999996,56509.29,40419.765,31481.37,21623.76,7132.679999999999,-696.6899999999999,0.0
1789862287.2837398,18472.995,33566.534999999996,56548.17,40445.955,31534.379999999997,21689.055,7122.465,-709.92,0.0
1789862287.2837634,18453.6,33526.755,56570.445,40484.52,31592.52,21745.305,7173.8099999999995,-731.3399999999999,0.0
1789862287.2887676,18444.059999999998,33543.72,56622.869999999995,40568.49,31693.004999999997,21818.114999999998,7163.505,-719.415,0.0
1789862287.2887876,18523.125,33608.295,56642.759999999995,40571.28,31663.574999999997,21722.76,7093.71,-689.49,0.0
1789862287.2922335,18546.434999999998,33575.22,56519.235,40385.385,31471.245,21485.34,7119.99,-684.855,0.0
1789862287.2922497,18550.305,33531.75,56432.97,40312.53,31397.895,21436.515,7097.715,-682.515,0.0
1789862287.2928295,18493.695,33473.835,56420.325,40376.97,31469.76,21666.195,7116.795,-717.435,0.0
1789862287.2928448,18419.76,33455.835,56406.195,40358.43,31442.129999999997,21669.344999999998,7145.1449999999995,-743.22,0.0
1789862287.298386,18413.684999999998,33459.479999999996,56423.34,40325.445,31431.914999999997,21643.02,7149.24,-731.16,0.0
1789862287.2984056,18462.42,33449.445,56403.854999999996,40322.295,31441.905,21619.079999999998,7128.179999999999,-711.4499999999999,0.0
1789862287.3013923,18513.09,33569.729999999996,56489.22,40332.555,31499.46,21653.145,7122.195,-706.365,0.0
1789862287.3014123,18552.69,33584.895,56487.645,40319.415,31492.8,21641.085,7106.445,-663.03,0.0
1789862287.3135335,18628.065,33634.17,56567.295,40433.22,31602.78,21730.094999999998,7078.005,-592.38,0.0
1789862287.3135593,18578.88,33600.96,56582.46,40472.145,31583.07,21747.195,7118.19,-631.215,0.0
1789862287.3135827,18430.11,33493.455,56502.854999999996,40427.909999999996,31531.725,21731.715,7196.804999999999,-755.8199999999999,0.0
1789862287.313594,18448.92,33528.555,56513.52,40458.42,31559.535,21749.67,7168.094999999999,-756.3149999999999,0.0
1789862287.3140678,18511.605,33587.01,56503.53,40410.854999999996,31510.574999999997,21654.405,7105.41,-736.29,0.0
1789862287.3140864,18537.975,33571.755,56482.56,40397.49,31529.745,21665.16,7119.495,-729.405,0.0
1789862287.3200128,18506.204999999998,33437.565,56374.244999999995,40298.265,31474.305,21581.64,7114.275,-728.235,0.0
1789862287.3200355,18493.155,33395.354999999996,56362.185,40314.24,31449.735,21553.29,7077.6449999999995,-713.475,0.0
1789862287.3232205,18520.515,33429.06,56351.88,40296.06,31359.42,21502.395,7071.03,-677.475,0.0
1789862287.3232367,18512.055,33531.03,56401.335,40318.02,31385.16,21491.73,7097.3099999999995,-685.0799999999999,0.0
1789862287.326897,18506.52,33624.72,56504.7,40360.5,31466.52,21662.46,7112.115,-707.13,0.0
1789862287.3269246,18532.62,33636.69,56561.939999999995,40433.67,31558.004999999997,21771.855,7122.915,-688.4549999999999,0.0
1789862287.3303113,18533.204999999998,33604.875,56545.335,40445.055,31521.824999999997,21664.485,7115.8949999999995,-680.85,0.0
1789862287.3303456,18548.1,33591.96,56511.36,40387.95,31498.335,21619.844999999998,7035.344999999999,-679.005,0.0
1789862287.3349967,18553.905,33597.854999999996,56530.619999999995,40449.33,31554.945,21663.629999999997,7061.715,-666.225,0.0
1789862287.33504,18472.454999999998,33494.625,56426.31,40331.295,31435.92,21595.184999999998,7133.04,-699.75,0.0
1789862287.3413873,18469.079999999998,33486.84,56413.305,40296.869999999995,31411.26,21548.024999999998,7138.9349999999995,-706.41,0.0
1789862287.341411,18512.19,33566.805,56478.509999999995,40349.34,31424.805,21517.29,7131.465,-698.5799999999999,0.0
1789862287.3414328,18531.45,33575.985,56517.75,40433.985,31516.695,21661.155,7167.825,-680.22,0.0
1789862287.3414443,18525.87,33586.65,56590.11,40532.31,31653.629999999997,21816.855,7178.67,-693.675,0.0
1789862287.3468535,18463.545,33563.43,56587.365,40532.49,31644.27,21815.73,7177.59,-733.23,0.0
1789862287.3468757,18433.62,33560.549999999996,56561.13,40465.935,31545.27,21708.54,7150.815,-737.37,0.0
1789862287.3631709,18449.91,33522.165,56500.11,40404.284999999996,31501.8,21699.45,7145.955,-731.88,0.0
1789862287.363185,18447.21,33475.455,56415.195,40328.82,31485.329999999998,21692.61,7147.755,-733.41,0.0
1789862287.363198,18466.425,33508.395,56436.57,40346.685,31510.079999999998,21597.12,7125.884999999999,-723.015,0.0
1789862287.363204,18499.23,33540.615,56460.689999999995,40376.88,31531.32,21634.605,7122.509999999999,-704.3399999999999,0.0
1789862287.363211,18525.329999999998,33586.335,56512.125,40433.445,31566.465,21716.954999999998,7158.195,-673.875,0.0
1789862287.3632164,18489.105,33581.475,56550.869999999995,40469.805,31555.8,21747.69,7188.929999999999,-685.125,0.0
1789862287.3632228,18488.655,33530.04,56531.835,40488.615,31574.07,21771.405,7161.84,-723.015,0.0
1789862287.363228,18555.84,33550.875,56511.27,40431.015,31523.489999999998,21684.375,7085.205,-701.055,0.0
1789862287.3660526,18572.579999999998,33583.545,56510.28,40411.979999999996,31487.625,21588.66,7042.95,-663.255,0.0
1789862287.3660693,18527.309999999998,33581.475,56522.655,40429.619999999995,31500.135,21529.44,7038.045,-681.7049999999999,0.0
1789862287.3724227,18531.63,33561.63,56487.96,40422.78,31505.309999999998,21545.73,7061.085,-677.475,0.0
1789862287.372436,18559.844999999998,33584.67,56521.845,40464.99,31542.254999999997,21653.91,7127.594999999999,-667.845,0.0
1789862287.374967,18533.655,33547.409999999996,56478.689999999995,40427.46,31511.385,21592.71,7185.509999999999,-698.04,0.0
1789862287.3749795,18517.005,33562.935,56499.975,40455.585,31616.46,21846.96,7190.1449999999995,-714.4649999999999,0.0
1789862287.3771367,18538.02,33574.725,56530.53,40474.755,31626.315,21834.315,7161.03,-693.855,0.0
1789862287.377145,18531.135,33549.435,56476.259999999995,40354.515,31519.71,21734.774999999998,7152.884999999999,-683.505,0.0
1789862287.3808436,18532.079999999998,33562.35,56459.025,40309.155,31474.98,21674.43,7139.07,-683.235,0.0
1789862287.3808568,18499.094999999998,33523.11,56444.579999999994,40366.53,31477.68,21643.2,7101.63,-698.67,0.0
1789862287.3870656,18477.54,33502.635,56424.015,40356.405,31411.754999999997,21578.085,7083.8099999999995,-699.345,0.0
1789862287.3871043,18510.344999999998,33499.53,56448.72,40407.39,31435.425,21625.155,7136.82,-673.605,0.0
1789862287.393137,18520.469999999998,33482.924999999996,56496.689999999995,40480.875,31534.559999999998,21656.114999999998,7183.215,-675.9449999999999,0.0
1789862287.3931508,18497.024999999998,33495.165,56514.284999999996,40512.78,31642.199999999997,21762.989999999998,7210.349999999999,-722.5649999999999,0.0
1789862287.3973234,18487.485,33555.195,56499.075,40460.895,31643.774999999998,21836.385,7221.509999999999,-734.895,0.0
1789862287.397345,18549.27,33678.045,56528.055,40371.39,31477.68,21657.195,7076.835,-715.41,0.0
1789862287.4018092,18554.219999999998,33646.5,56520.854999999996,40364.369999999995,31445.64,21589.425,7028.594999999999,-704.43,0.0
1789862287.4018192,18532.89,33562.44,56493.045,40408.155,31510.395,21656.52,7108.155,-677.3399999999999,0.0
1789862287.4018295,18598.995,33603.705,56517.93,40447.305,31546.934999999998,21619.17,7094.429999999999,-642.6,0.0
1789862287.4018357,18657.135,33704.055,56619.72,40515.75,31616.28,21688.155,7131.554999999999,-639.5849999999999,0.0
1789862287.40684,18564.795,33650.145,56587.77,40512.195,31613.085,21833.46,7173.8099999999995,-692.055,0.0
1789862287.4068496,18485.37,33571.44,56517.21,40464.585,31580.55,21805.155,7188.255,-722.655,0.0
1789862287.4101613,18498.69,33524.865,56476.305,40408.604999999996,31525.02,21698.73,7157.429999999999,-718.8299999999999,0.0
1789862287.4101763,18519.885,33497.055,56434.005,40336.29,31423.454999999998,21519.18,7156.9349999999995,-687.645,0.0
1789862287.414184,18503.774999999998,33501.42,56424.96,40294.575,31401.18,21572.235,7154.955,-667.395,0.0
1789862287.4142025,18520.38,33559.47,56504.88,40402.08,31473.36,21657.645,7089.344999999999,-652.005,0.0
1789862287.419884,18503.91,33577.11,56572.695,40514.174999999996,31523.895,21678.075,7162.605,-641.34,0.0
1789862287.4198968,18449.46,33475.545,56503.034999999996,40565.88,31551.3,21730.23,7221.554999999999,-700.65,0.0
1789862287.4218884,18484.469999999998,33458.895,56500.829999999994,40635.45,31712.129999999997,21806.145,7182.179999999999,-734.175,0.0
1789862287.4219005,18511.2,33479.055,56479.32,40561.92,31698.18,21798.18,7188.255,-724.41,0.0
1789862287.4267733,18540.809999999998,33627.015,56546.82,40464.09,31579.829999999998,21690.27,7140.509999999999,-719.1,0.0
1789862287.426788,18553.364999999998,33720.299999999996,56559.24,40368.51,31504.86,21636.809999999998,7118.009999999999,-686.0699999999999,0.0
1789862287.430254,18625.68,33699.42,56588.354999999996,40451.625,31592.16,21741.704999999998,7097.759999999999,-622.305,0.0
1789862287.430271,18657.855,33664.68,56548.755,40442.22,31563.809999999998,21719.79,7120.3949999999995,-613.62,0.0
1789862287.4368153,18569.295,33580.08,56468.52,40358.295,31474.305,21648.87,7146.9,-684.0899999999999,0.0
1789862287.436838,18505.71,33541.02,56443.005,40322.25,31440.51,21650.76,7155.945,-728.1899999999999,0.0
1789862287.441878,18507.059999999998,33526.845,56464.604999999996,40371.435,31507.02,21708.18,7155.855,-709.9649999999999,0.0
1789862287.4418988,18533.745,33557.445,56509.74,40441.905,31557.555,21720.51,7182.36,-679.3199999999999,0.0
1789862287.4419193,18529.11,33519.915,56461.77,40433.31,31542.704999999998,21709.8,7197.12,-670.545,0.0
1789862287.44193,18510.434999999998,33494.58,56415.6,40387.32,31548.96,21739.14,7166.205,-690.615,0.0
1789862287.4468148,18525.645,33559.065,56463.119999999995,40413.555,31552.605,21722.985,7118.55,-705.015,0.0
1789862287.4468424,18579.78,33619.185,56495.655,40389.525,31503.78,21680.37,7109.955,-673.605,0.0
1789862287.4510849,18578.07,33619.59,56507.579999999994,40401.945,31455.899999999998,21554.594999999998,7089.705,-672.0749999999999,0.0
1789862287.4511163,18552.42,33587.145,56491.38,40401.945,31432.995,21489.03,7140.33,-666.27,0.0
1789862287.4585552,18539.55,33539.534999999996,56453.174999999996,40413.015,31487.625,21704.129999999997,7168.139999999999,-677.385,0.0
1789862287.458585,18538.38,33557.94,56473.11,40418.145,31542.885,21774.78,7164.8099999999995,-703.98,0.0
1789862287.4586112,18539.684999999998,33550.155,56476.89,40442.354999999996,31554.945,21738.465,7162.83,-701.28,0.0
1789862287.4586248,18564.344999999998,33596.595,56560.365,40530.915,31599.18,21770.28,7168.5,-676.755,0.0
1789862287.4763353,18582.48,33621.795,56564.729999999996,40506.705,31606.335,21763.754999999997,7158.0599999999995,-684.9449999999999,0.0
1789862287.4763584,18611.1,33674.58,56626.47,40540.185,31661.684999999998,21831.165,7160.849999999999,-686.385,0.0
1789862287.4763813,18607.184999999998,33677.82,56646.765,40566.33,31679.414999999997,21844.17,7133.58,-647.775,0.0
1789862287.4763913,18493.11,33591.42,56584.71,40524.615,31607.82,21738.6,7221.105,-682.245,0.0
1789862287.4764023,18432.27,33531.525,56536.244999999995,40499.28,31575.645,21775.545,7273.62,-719.235,0.0
1789862287.4764116,18521.594999999998,33528.33,56518.784999999996,40500.27,31578.57,21744.809999999998,7174.17,-675.81,0.0
1789862287.4764228,18586.079999999998,33566.31,56539.259999999995,40495.725,31584.105,21742.559999999998,7097.985,-662.715,0.0
1789862287.4764323,18596.88,33565.32,56550.24,40506.255,31581.629999999997,21709.62,7122.014999999999,-668.79,0.0
1789862287.477683,18544.95,33477.299999999996,56448.945,40467.33,31576.32,21774.96,7182.945,-678.555,0.0
1789862287.477697,18597.105,33599.744999999995,56504.97,40448.564999999995,31583.204999999998,21810.735,7155.179999999999,-646.155,0.0
1789862287.4838903,18650.79,33739.695,56623.32,40492.71,31606.155,21797.235,7151.264999999999,-649.62,0.0
1789862287.4839125,18609.434999999998,33711.21,56599.515,40495.095,31573.035,21744.0,7190.415,-686.52,0.0
1789862287.485549,18543.375,33662.61,56590.515,40553.82,31584.329999999998,21670.469999999998,7177.455,-700.47,0.0
1789862287.485571,18538.515,33640.56,56589.93,40567.994999999995,31605.39,21599.19,7161.929999999999,-689.49,0.0
1789862287.4905117,18562.635,33619.815,56547.27,40483.17,31522.68,21609.989999999998,7164.63,-686.2049999999999,0.0
1789862287.490546,18540.18,33572.835,56498.67,40437.585,31516.379999999997,21741.795,7169.759999999999,-712.4399999999999,0.0
1789862287.4944005,18520.605,33492.51,56400.795,40324.229999999996,31463.37,21708.54,7183.575,-702.675,0.0
1789862287.4944286,18528.704999999998,33536.025,56444.445,40362.119999999995,31480.245,21698.235,7165.8,-697.05,0.0
1789862287.5058634,18526.454999999998,33579.225,56501.009999999995,40472.729999999996,31565.16,21740.309999999998,7160.219999999999,-692.8199999999999,0.0
1789862287.5058892,18518.985,33590.924999999996,56537.685,40520.7,31604.219999999998,21831.93,7177.05,-698.22,0.0
1789862287.5065725,18569.969999999998,33588.405,56536.695,40484.07,31518.719999999998,21729.465,7148.5199999999995,-687.3299999999999,0.0
1789862287.5065887,18598.545,33575.805,56490.119999999995,40424.534999999996,31505.219999999998,21701.385,7144.875,-669.42,0.0
1789862287.5066075,18622.395,33587.28,56521.079999999994,40469.895,31561.695,21709.844999999998,7150.905,-637.92,0.0
1789862287.5066187,18628.785,33608.205,56537.28,40466.295,31515.12,21616.829999999998,7073.009999999999,-637.3349999999999,0.0
1789862287.510236,18605.88,33573.465,56491.244999999995,40458.104999999996,31497.03,21652.695,7139.7,-649.305,0.0
1789862287.510257,18629.415,33632.775,56508.21,40469.445,31526.46,21662.91,7121.7,-644.13,0.0
1789862287.5141969,18596.385,33631.47,56517.345,40456.53,31571.235,21613.77,7118.054999999999,-671.4,0.0
1789862287.5142162,18552.555,33604.784999999996,56501.28,40448.159999999996,31596.84,21697.29,7128.63,-699.7049999999999,0.0
1789862287.5236657,18548.145,33634.845,56551.905,40481.729999999996,31566.78,21755.745,7185.375,-689.85,0.0
1789862287.523696,18502.469999999998,33568.92,56567.655,40525.965,31622.76,21792.105,7248.825,-725.265,0.0
1789862287.5237243,18486.719999999998,33456.42,56499.479999999996,40529.97,31681.44,21955.545,7235.415,-736.425,0.0
1789862287.523738,18542.114999999998,33467.22,56443.634999999995,40488.119999999995,31612.77,21822.165,7194.195,-702.27,0.0
1789862287.538723,18586.395,33577.784999999996,56456.775,40413.42,31482.629999999997,21635.37,7163.955,-680.9399999999999,0.0
1789862287.538757,18604.844999999998,33686.235,56525.445,40459.994999999995,31550.715,21806.145,7175.925,-668.295,0.0
1789862287.5387704,18659.565,33684.795,56587.229999999996,40529.52,31643.684999999998,21849.885,7202.07,-613.4399999999999,0.0
1789862287.5387764,18669.78,33652.845,56568.329999999994,40505.354999999996,31639.184999999998,21826.485,7197.165,-598.185,0.0
1789862287.5417523,18642.329999999998,33705.585,56588.31,40531.229999999996,31606.379999999997,21809.969999999998,7194.735,-630.405,0.0
1789862287.5417688,18562.77,33610.59,56521.755,40514.31,31563.27,21777.524999999998,7169.985,-683.64,0.0
1789862287.5417836,18550.305,33541.92,56520.36,40539.645,31590.27,21745.035,7122.375,-698.85,0.0
1789862287.5417895,18569.61,33582.645,56583.81,40564.395,31584.059999999998,21620.745,7090.335,-692.865,0.0
1789862287.5423644,18548.774999999998,33586.155,56592.854999999996,40542.525,31597.02,21739.995,7189.5599999999995,-690.615,0.0
1789862287.542377,18555.255,33601.77,56559.42,40504.14,31573.98,21775.274999999998,7206.344999999999,-691.92,0.0
1789862287.5457642,18571.32,33626.385,56489.445,40462.155,31569.21,21776.309999999998,7145.46,-687.4649999999999,0.0
1789862287.5457723,18541.44,33625.799999999996,56488.814999999995,40392.945,31521.96,21718.35,7161.615,-677.52,0.0
1789862287.5524921,18494.91,33566.534999999996,56500.695,40433.445,31586.895,21759.03,7240.1849999999995,-710.505,0.0
1789862287.5525048,18521.91,33578.325,56539.079999999994,40513.545,31643.37,21797.01,7235.46,-713.0699999999999,0.0
1789862287.5551949,18531.765,33574.86,56527.47,40510.845,31588.92,21831.12,7198.83,-715.905,0.0
1789862287.5552068,18570.42,33583.005,56499.119999999995,40466.159999999996,31540.995,21772.395,7193.835,-700.0649999999999,0.0
1789862287.5580876,18646.605,33572.295,56452.905,40401.765,31443.21,21583.755,7138.53,-647.55,0.0
1789862287.5580993,18632.835,33520.59,56431.89,40409.01,31426.965,21533.985,7123.094999999999,-637.875,0.0
1789862287.5621748,18584.954999999998,33493.59,56449.395,40464.27,31504.274999999998,21704.805,7163.28,-656.4599999999999,0.0
1789862287.5621867,18557.46,33666.479999999996,56644.38,40620.51,31659.21,21889.98,7191.764999999999,-701.775,0.0
1789862287.5692377,18539.145,33741.18,56681.685,40611.015,31666.23,21854.07,7194.78,-712.305,0.0
1789862287.56925,18551.204999999998,33727.455,56678.805,40630.994999999995,31752.315,21927.149999999998,7220.88,-718.56,0.0
