timestamp,emg_0,emg_1,emg_2,emg_3,emg_4,emg_5,emg_6,emg_7,marker
1789861800.210524,13855.814999999999,29989.215,52063.92,41274.63,29171.204999999998,21242.07,16825.77,-125.235,0.0
1789861800.2105398,13845.555,29981.655,52039.305,41254.244999999995,29166.704999999998,21227.579999999998,16816.635,-136.62,0.0
1789861800.2105565,13845.689999999999,29989.485,52054.74,41258.295,29168.864999999998,21234.555,16805.565,-139.545,0.0
1789861800.2105625,13847.355,29996.01,52091.954999999994,41276.43,29170.8,21238.155,16806.51,-136.125,0.0
1789861800.2135823,13835.654999999999,29975.76,52083.494999999995,41282.729999999996,29172.465,21240.27,16810.38,-144.495,0.0
1789861800.2135952,13833.855,29955.239999999998,52071.525,41278.77,29168.01,21235.41,16814.07,-143.415,0.0
1789861800.2187295,13828.59,29946.6,52072.2,41276.25,29169.225,21248.594999999998,16813.35,-145.755,0.0
1789861800.2187514,13842.0,29976.93,52045.335,41263.965,29157.524999999998,21222.495,16817.309999999998,-137.92499999999998,0.0
1789861800.2237089,13841.189999999999,30003.254999999997,52068.645,41242.005,29151.135,21245.445,16805.655,-142.2,0.0
1789861800.2237303,13848.93,29995.829999999998,52073.505,41257.125,29167.155,21258.855,16809.48,-134.82,0.0
1789861800.2263439,13870.26,30000.555,52067.88,41270.534999999996,29176.785,21254.535,16826.445,-116.05499999999999,0.0
1789861800.2263606,13859.865,29986.92,52079.67,41271.435,29172.285,21244.23,16824.375,-124.28999999999999,0.0
1789861800.2306921,13848.705,29978.504999999997,52086.015,41274.135,29175.795,21247.649999999998,16816.41,-135.0,0.0
1789861800.2307057,13865.445,29993.129999999997,52079.174999999996,41286.915,29196.539999999997,21280.094999999998,16816.77,-123.92999999999999,0.0
1789861800.2342117,13868.369999999999,29997.405,52073.775,41286.51,29195.235,21283.065,16818.21,-119.565,0.0
1789861800.2342243,13862.115,29995.515,52075.755,41279.625,29190.87,21281.535,16803.045,-123.21,0.0
1789861800.241487,13855.725,29984.489999999998,52071.299999999996,41265.72,29169.945,21250.53,16798.905,-128.745,0.0
1789861800.2415051,13858.425,29979.09,52082.595,41276.025,29170.71,21256.695,16808.309999999998,-127.97999999999999,0.0
1789861800.24506,13849.47,29964.149999999998,52071.84,41276.159999999996,29169.495,21256.695,16808.85,-135.315,0.0
1789861800.2450743,13861.664999999999,29970.27,52074.045,41291.055,29193.66,21283.2,16804.845,-125.145,0.0
1789861800.246476,13862.88,29975.265,52091.909999999996,41294.97,29191.905,21274.515,16805.655,-124.065,0.0
1789861800.2464907,13847.13,29969.1,52095.735,41286.555,29180.07,21259.215,16803.45,-141.345,0.0
1789861800.2507749,13853.43,29972.655,52063.064999999995,41268.825,29181.914999999997,21265.02,16799.355,-138.015,0.0
1789861800.2507892,13856.31,29984.085,52054.695,41265.72,29181.195,21266.684999999998,16797.6,-134.775,0.0
1789861800.2536926,13852.125,29978.145,52055.009999999995,41261.31,29177.46,21266.145,16813.305,-134.82,0.0
1789861800.2537096,13846.185,29949.39,52046.009999999995,41261.895,29184.704999999998,21274.11,16819.965,-135.315,0.0
1789861800.2585285,13854.644999999999,29960.73,52065.99,41271.525,29178.27,21268.395,16825.184999999998,-125.55,0.0
1789861800.2585416,13845.195,29971.35,52088.805,41274.81,29197.98,21280.274999999998,16813.079999999998,-140.94,0.0
1789861800.2613845,13849.244999999999,29954.16,52120.71,41289.705,29185.02,21267.135,16798.95,-134.595,0.0
1789861800.2613933,13850.595,29947.995,52088.534999999996,41272.47,29161.079999999998,21251.52,16783.559999999998,-130.23,0.0
1789861800.266082,13860.765,29965.14,52000.56,41257.485,29170.485,21262.635,16798.095,-118.125,0.0
1789861800.266096,13853.43,29971.98,52052.174999999996,41241.51,29175.21,21264.704999999998,16802.19,-129.015,0.0
1789861800.2703905,13843.26,29972.655,52047.81,41236.155,29159.594999999998,21242.88,16813.98,-140.17499999999998,0.0
1789861800.2704191,13847.85,29973.195,52056.134999999995,41251.005,29130.75,21224.61,16796.745,-139.23,0.0
1789861800.2729795,13851.135,29972.61,52059.284999999996,41259.96,29141.414999999997,21227.219999999998,16792.245,-135.99,0.0
1789861800.2729971,13855.095,29973.42,52086.689999999995,41275.619999999995,29171.969999999998,21249.765,16787.16,-132.075,0.0
1789861800.2800245,13851.135,29964.285,52069.77,41284.485,29185.829999999998,21267.0,16791.434999999998,-132.345,0.0
1789861800.28004,13838.355,29948.219999999998,52046.46,41264.865,29188.395,21262.41,16802.595,-141.435,0.0
1789861800.2839124,13836.779999999999,29959.379999999997,52061.759999999995,41287.905,29188.575,21258.27,16804.845,-148.59,0.0
1789861800.2839267,13860.9,29987.28,52059.555,41277.015,29130.48,21235.41,16802.73,-131.265,0.0
1789861800.2868505,13864.41,29988.36,52066.665,41265.54,29152.125,21245.445,16795.755,-124.64999999999999,0.0
1789861800.2868645,13851.81,29979.989999999998,52070.354999999996,41256.135,29145.87,21234.015,16765.335,-137.745,0.0
1789861800.2934976,13858.695,29989.35,52073.1,41269.545,29161.079999999998,21250.71,16749.36,-135.54,0.0
1789861800.293512,13852.529999999999,29982.285,52056.27,41265.854999999996,29162.789999999997,21249.585,16766.774999999998,-138.78,0.0
1789861800.2958589,13861.98,29982.645,52058.295,41277.06,29169.225,21247.695,16803.18,-128.20499999999998,0.0
1789861800.2958753,13853.43,29954.385,52046.369999999995,41282.729999999996,29171.969999999998,21247.965,16814.7,-128.43,0.0
1789861800.298252,13843.035,29938.14,52029.27,41271.435,29166.48,21251.745,16810.11,-138.32999999999998,0.0
1789861800.298266,13851.81,29964.87,52092.585,41278.725,29171.655,21261.735,16793.055,-137.43,0.0
1789861800.3040867,13858.605,29980.71,52102.439999999995,41281.695,29177.01,21261.42,16789.274999999998,-133.065,0.0
1789861800.3041005,13862.205,29977.559999999998,52109.28,41286.06,29165.489999999998,21234.285,16792.335,-126.765,0.0
1789861800.305954,13853.835,29964.239999999998,52127.685,41293.71,29166.75,21232.575,16774.829999999998,-133.695,0.0
1789861800.3059673,13847.984999999999,29961.405,52075.53,41277.6,29158.785,21227.04,16765.335,-142.695,0.0
1789861800.3097255,13853.88,29973.96,52020.45,41260.32,29157.03,21230.505,16788.285,-138.555,0.0
1789861800.3097382,13849.695,29968.605,52034.985,41261.13,29156.085,21232.079999999998,16798.23,-139.635,0.0
1789861800.314989,13847.984999999999,29954.07,52035.93,41269.409999999996,29166.03,21238.425,16787.43,-140.57999999999998,0.0
1789861800.3150022,13849.289999999999,29952.539999999997,52058.204999999994,41280.165,29174.399999999998,21242.835,16777.934999999998,-139.725,0.0
1789861800.3175151,13860.945,29971.71,52090.92,41284.619999999995,29173.32,21247.605,16780.77,-132.075,0.0
1789861800.3175263,13854.06,29967.704999999998,52070.985,41291.369999999995,29190.059999999998,21254.445,16781.625,-138.64499999999998,0.0
1789861800.3293772,13862.519999999999,29973.51,52057.35,41282.28,29161.17,21237.93,16782.12,-132.57,0.0
1789861800.3293989,13861.619999999999,29967.524999999998,52046.865,41281.02,29181.42,21252.555,16793.774999999998,-129.69,0.0
1789861800.329419,13871.43,29982.51,52070.805,41307.795,29191.004999999997,21259.934999999998,16796.745,-121.27499999999999,0.0
1789861800.3294265,13870.215,29990.835,52095.329999999994,41300.64,29174.309999999998,21254.04,16791.48,-125.32499999999999,0.0
1789861800.330778,13860.945,29980.98,52086.329999999994,41277.555,29166.344999999998,21246.075,16783.785,-133.92,0.0
1789861800.3308094,13863.779999999999,29987.19,52079.13,41278.77,29170.89,21236.085,16777.845,-131.4,0.0
1789861800.334223,13871.205,29980.8,52062.615,41298.435,29189.835,21258.585,16787.43,-122.94,0.0
1789861800.3342369,13863.914999999999,29964.51,52088.354999999996,41306.354999999996,29185.335,21263.895,16790.355,-126.945,0.0
1789861800.338232,13856.625,29965.59,52143.704999999994,41317.83,29171.969999999998,21246.21,16780.274999999998,-133.01999999999998,0.0
1789861800.338246,13854.6,29974.23,52137.405,41316.075,29175.704999999998,21244.005,16778.07,-138.465,0.0
1789861800.3422503,13879.98,30001.094999999998,52060.32,41301.945,29192.219999999998,21259.17,16788.195,-119.565,0.0
1789861800.3422663,13875.119999999999,29993.985,52038.9,41280.299999999996,29193.344999999998,21260.7,16792.47,-120.50999999999999,0.0
1789861800.3462453,13884.255,30003.3,52076.115,41297.13,29184.66,21259.079999999998,16788.285,-113.265,0.0
1789861800.3462603,13880.88,30001.004999999997,52085.384999999995,41300.729999999996,29179.71,21261.465,16781.13,-117.49499999999999,0.0
1789861800.350338,13871.699999999999,29987.01,52061.895,41295.735,29182.004999999997,21257.325,16783.02,-125.865,0.0
1789861800.350355,13869.09,29987.145,52059.15,41295.915,29190.96,21264.75,16786.53,-126.89999999999999,0.0
1789861800.3534644,13875.21,29996.324999999997,52078.32,41301.27,29180.43,21258.675,16788.96,-121.815,0.0
1789861800.3534787,13884.119999999999,29999.204999999998,52089.39,41303.52,29182.094999999998,21266.01,16787.745,-114.92999999999999,0.0
1789861800.3582382,13878.99,29994.254999999997,52086.915,41292.405,29171.565,21247.38,16787.79,-120.015,0.0
1789861800.3582523,13879.035,29998.395,52109.729999999996,41304.33,29183.219999999998,21258.63,16783.649999999998,-120.195,0.0
1789861800.3622286,13870.574999999999,29986.559999999998,52098.93,41311.17,29189.789999999997,21286.71,16767.495,-126.72,0.0
1789861800.3622491,13878.449999999999,29985.704999999998,52081.829999999994,41317.38,29197.305,21293.73,16763.085,-121.455,0.0
1789861800.3654692,13889.025,29995.92,52091.055,41321.295,29207.204999999998,21284.01,16788.78,-109.89,0.0
1789861800.3654804,13872.24,29983.184999999998,52068.78,41310.63,29200.995,21271.545,16806.105,-120.96,0.0
1789861800.3708951,13884.21,29989.934999999998,52065.134999999995,41304.78,29189.835,21283.875,16799.67,-111.24,0.0
1789861800.3709092,13882.275,29987.46,52089.165,41313.42,29212.379999999997,21295.53,16786.215,-112.86,0.0
1789861800.3741677,13891.68,30003.12,52133.67,41333.625,29195.73,21271.68,16772.67,-109.035,0.0
1789861800.3741827,13894.695,30010.05,52120.305,41318.28,29194.92,21258.18,16763.535,-108.315,0.0
1789861800.3783495,13885.56,29996.91,52077.915,41317.74,29208.914999999997,21275.46,16766.91,-115.24499999999999,0.0
1789861800.3783665,13887.765,29995.785,52089.659999999996,41320.755,29154.825,21259.575,16785.045,-111.015,0.0
1789861800.3825939,13877.279999999999,29989.844999999998,52080.075,41309.955,29176.02,21279.645,16802.235,-119.16,0.0
1789861800.3826132,13887.18,29999.52,52070.534999999996,41309.595,29185.92,21277.17,16812.585,-113.13,0.0
1789861800.386272,13899.33,30010.5,52101.9,41328.9,29203.335,21299.625,16801.785,-101.74499999999999,0.0
1789861800.3862953,13894.605,30016.71,52126.335,41332.409999999996,29204.1,21302.55,16797.329999999998,-106.875,0.0
1789861800.3945017,13889.699999999999,30009.285,52102.665,41318.64,29185.695,21272.399999999998,16802.19,-110.655,0.0
1789861800.394516,13885.47,29993.76,52092.18,41318.82,29187.225,21279.915,16795.8,-112.815,0.0
1789861800.3945305,13882.23,30005.324999999997,52115.085,41326.155,29191.32,21280.815,16789.005,-115.38,0.0
1789861800.3945365,13885.605,30015.989999999998,52114.905,41323.545,29192.94,21278.925,16789.184999999998,-112.95,0.0
1789861800.4042296,13896.99,30011.805,52096.59,41335.02,29207.34,21293.46,16789.454999999998,-104.03999999999999,0.0
1789861800.4042532,13897.935,30005.954999999998,52095.104999999996,41338.979999999996,29210.805,21294.765,16786.26,-103.095,0.0
1789861800.4042785,13894.92,30004.379999999997,52127.369999999995,41349.869999999995,29209.635,21290.985,16787.88,-104.80499999999999,0.0
1789861800.4042895,13891.41,30006.045,52123.005,41330.159999999996,29200.95,21281.13,16784.28,-108.945,0.0
1789861800.404858,13903.875,30016.215,52109.909999999996,41332.545,29222.864999999998,21298.274999999998,16785.45,-98.82,0.0
1789861800.4048705,13897.98,30005.594999999998,52113.825,41316.345,29188.035,21276.765,16784.145,-104.265,0.0
1789861800.41015,13900.23,30001.725,52120.17,41319.135,29200.59,21286.485,16789.635,-101.295,0.0
1789861800.4101636,13892.22,29996.684999999998,52067.25,41325.255,29199.015,21279.51,16794.855,-107.505,0.0
1789861800.4154842,13889.609999999999,30008.385,52098.704999999994,41340.689999999995,29181.465,21268.665,16781.489999999998,-114.52499999999999,0.0
1789861800.4154978,13891.41,30017.835,52115.085,41338.799999999996,29190.51,21274.02,16779.329999999998,-116.145,0.0
1789861800.4217532,13898.07,30014.504999999997,52098.345,41335.65,29195.325,21278.52,16782.84,-109.575,0.0
1789861800.4217756,13897.845,29997.405,52077.284999999996,41341.365,29208.825,21290.985,16786.665,-106.38,0.0
1789861800.4255483,13894.244999999999,29994.254999999997,52090.784999999996,41346.27,29221.965,21300.21,16788.285,-106.38,0.0
1789861800.425573,13903.019999999999,30012.93,52139.744999999995,41336.369999999995,29233.62,21305.25,16790.489999999998,-96.615,0.0
1789861800.4270244,13911.885,30022.469999999998,52128.0,41323.14,29216.16,21298.5,16792.02,-91.97999999999999,0.0
1789861800.4270391,13905.675,30023.055,52083.045,41332.229999999996,29193.57,21286.26,16784.954999999998,-101.78999999999999,0.0
1789861800.4294627,13913.279999999999,30033.045,52117.11,41358.915,29199.105,21285.945,16779.105,-96.3,0.0
1789861800.4294748,13913.505,30035.565,52132.77,41364.72,29196.719999999998,21275.46,16781.04,-94.5,0.0
1789861800.4384463,13911.164999999999,30028.454999999998,52134.165,41357.97,29198.745,21281.85,16781.04,-94.545,0.0
1789861800.4384642,13912.38,30028.274999999998,52105.32,41340.06,29200.454999999998,21283.965,16780.635,-94.005,0.0
1789861800.4390695,13903.019999999999,30027.285,52098.84,41332.455,29187.36,21269.61,16782.704999999998,-103.22999999999999,0.0
1789861800.439082,13903.199999999999,30012.795,52109.28,41343.57,29193.48,21272.579999999998,16788.465,-102.10499999999999,0.0
1789861800.44384,13908.734999999999,30000.195,52130.295,41369.22,29212.065,21288.105,16790.579999999998,-94.365,0.0
1789861800.4438648,13899.734999999999,29997.405,52136.46,41368.095,29214.18,21288.059999999998,16789.14,-100.30499999999999,0.0
1789861800.446684,13909.994999999999,30025.574999999997,52147.89,41371.56,29231.64,21304.844999999998,16786.575,-93.6,0.0
1789861800.4466975,13902.164999999999,30017.565,52151.265,41369.58,29224.71,21298.725,16778.43,-100.755,0.0
1789861800.4495623,13911.705,30028.004999999997,52169.895,41381.46,29225.969999999998,21295.44,16773.885,-96.92999999999999,0.0
1789861800.4495776,13919.085,30037.905,52107.84,41357.43,29214.495,21288.42,16778.475,-94.725,0.0
1789861800.4543798,13926.96,30041.684999999998,52084.979999999996,41353.424999999996,29223.09,21312.945,16784.235,-85.815,0.0
1789861800.4543931,13912.83,30011.895,52100.954999999994,41347.395,29205.45,21275.954999999998,16788.42,-92.02499999999999,0.0
1789861800.458847,13904.955,30002.489999999998,52101.81,41342.174999999996,29198.43,21277.8,16782.704999999998,-99.99,0.0
1789861800.45886,13910.039999999999,30022.379999999997,52102.034999999996,41342.22,29204.73,21287.88,16779.285,-99.81,0.0
1789861800.463859,13922.82,30036.149999999998,52116.21,41362.784999999996,29224.395,21293.235,16757.684999999998,-92.205,0.0
1789861800.463874,13927.32,30040.829999999998,52126.829999999994,41375.79,29227.86,21290.895,16748.954999999998,-89.1,0.0
1789861800.4718883,13921.154999999999,30039.795,52136.865,41371.74,29226.645,21295.485,16778.43,-89.685,0.0
1789861800.4719195,13908.555,30020.309999999998,52116.93,41355.09,29215.26,21290.13,16809.255,-94.77,0.0
1789861800.471952,13904.234999999999,30013.875,52109.82,41340.33,29203.695,21276.495,16796.43,-100.035,0.0
1789861800.4719663,13920.255,30031.065,52121.655,41345.145,29209.635,21288.375,16795.305,-88.515,0.0
1789861800.4748073,13914.09,30024.495,52115.805,41340.284999999996,29203.379999999997,21279.555,16790.085,-95.715,0.0
1789861800.474831,13911.39,30015.719999999998,52109.909999999996,41345.189999999995,29209.635,21287.61,16787.114999999998,-98.865,0.0
1789861800.4783363,13908.779999999999,30019.949999999997,52122.329999999994,41351.534999999996,29212.379999999997,21288.149999999998,16782.93,-101.16,0.0
1789861800.4783676,13910.039999999999,30036.42,52157.384999999995,41359.77,29213.37,21285.45,16775.1,-100.485,0.0
1789861800.482122,13921.785,30034.395,52155.945,41370.93,29225.835,21290.535,16783.829999999998,-87.345,0.0
1789861800.4821393,13918.275,30012.614999999998,52109.82,41372.955,29232.719999999998,21289.77,16789.725,-89.865,0.0
1789861800.485771,13929.029999999999,30025.574999999997,52115.22,41376.735,29227.23,21298.77,16787.295,-81.585,0.0
1789861800.4857967,13914.404999999999,30008.925,52121.835,41357.159999999996,29209.635,21295.305,16780.5,-94.005,0.0
1789861800.4895914,13913.73,30008.699999999997,52119.045,41340.96,29205.945,21293.145,16781.67,-95.265,0.0
1789861800.4896045,13915.529999999999,30031.289999999997,52108.695,41333.715,29214.27,21300.21,16778.655,-97.065,0.0
1789861800.493588,13911.705,30028.454999999998,52118.64,41353.335,29236.23,21301.02,16777.665,-98.77499999999999,0.0
1789861800.493601,13914.63,30026.204999999998,52130.25,41367.33,29214.18,21278.925,16773.885,-98.1,0.0
1789861800.498217,13915.935,30026.655,52158.015,41370.21,29195.504999999997,21286.305,16767.315,-98.05499999999999,0.0
1789861800.4982314,13919.31,30027.555,52150.994999999995,41380.244999999995,29221.065,21301.29,16769.61,-93.69,0.0
1789861800.5032244,13921.289999999999,30033.045,52106.265,41363.415,29218.68,21299.579999999998,16773.93,-92.78999999999999,0.0
1789861800.5032392,13930.109999999999,30041.684999999998,52140.78,41366.025,29219.085,21302.505,16775.145,-83.835,0.0
1789861800.5069308,13921.199999999999,30035.52,52166.204999999994,41374.034999999996,29216.43,21297.825,16765.605,-90.945,0.0
1789861800.5069537,13909.455,30024.629999999997,52129.17,41364.405,29210.76,21290.625,16746.93,-101.655,0.0
1789861800.5102465,13912.425,30028.905,52072.244999999995,41351.805,29211.885,21293.55,16753.815,-99.17999999999999,0.0
1789861800.5102673,13915.98,30029.265,52082.775,41343.525,29212.11,21298.094999999998,16774.965,-95.985,0.0
1789861800.5145152,13923.81,30029.085,52117.244999999995,41348.88,29215.89,21301.785,16781.13,-90.17999999999999,0.0
1789861800.5145302,13918.365,30022.245,52115.085,41351.265,29222.55,21301.155,16771.905,-96.345,0.0
1789861800.5184891,13920.074999999999,30023.235,52117.829999999994,41367.96,29236.32,21312.315,16769.295,-93.06,0.0
1789861800.5185146,13917.555,30017.52,52120.935,41359.77,29205.989999999998,21289.635,16766.19,-96.3,0.0
1789861800.52259,13919.535,30022.785,52139.61,41364.27,29237.579999999998,21314.024999999998,16764.434999999998,-93.78,0.0
1789861800.5226123,13925.654999999999,30025.664999999997,52121.159999999996,41367.015,29252.655,21317.895,16771.995,-85.905,0.0
1789861800.5265522,13923.585,30027.555,52129.979999999996,41371.02,29226.6,21304.98,16773.93,-88.38,0.0
1789861800.5265665,13914.72,30021.75,52149.15,41362.965,29174.309999999998,21274.559999999998,16764.434999999998,-98.05499999999999,0.0
1789861800.5305011,13924.394999999999,30027.824999999997,52124.174999999996,41364.135,29203.155,21291.704999999998,16765.02,-90.945,0.0
1789861800.5305135,13918.185,30017.385,52081.784999999996,41351.354999999996,29206.754999999997,21293.684999999998,16766.91,-96.92999999999999,0.0
1789861800.534392,13910.85,30008.52,52098.704999999994,41366.115,29221.695,21299.985,16760.97,-101.205,0.0
1789861800.5344276,13922.64,30014.414999999997,52125.165,41373.405,29217.195,21304.53,16756.92,-92.295,0.0
1789861800.5382714,13923.135,30021.434999999998,52127.235,41372.01,29213.46,21297.645,16742.88,-97.28999999999999,0.0
1789861800.5382907,13931.505,30031.11,52131.825,41368.635,29202.12,21273.48,16725.285,-93.06,0.0
1789861800.5415845,13937.76,30042.855,52129.935,41373.585,29216.925,21292.2,16736.085,-85.22999999999999,0.0
1789861800.5416088,13938.57,30053.789999999997,52140.555,41358.33,29215.575,21292.829999999998,16749.36,-82.71,0.0
1789861800.5460465,13927.365,30040.335,52163.145,41375.475,29230.11,21317.67,16731.809999999998,-89.64,0.0
1789861800.5460756,13916.519999999999,30024.09,52171.92,41381.01,29216.16,21314.745,16738.11,-97.335,0.0
1789861800.5494664,13912.92,30018.105,52154.82,41360.49,29206.575,21289.59,16771.184999999998,-99.27,0.0
1789861800.5494907,13911.435,30011.985,52100.009999999995,41357.88,29207.969999999998,21287.385,16781.085,-101.42999999999999,0.0
1789861800.5535192,13927.545,30025.62,52089.255,41359.185,29198.969999999998,21279.465,16780.454999999998,-87.47999999999999,0.0
1789861800.5535293,13925.925,30026.204999999998,52108.155,41361.659999999996,29209.545,21293.505,16774.11,-89.685,0.0
1789861800.5600035,13926.42,30030.03,52128.18,41366.25,29211.254999999997,21287.835,16761.42,-91.66499999999999,0.0
1789861800.5600228,13913.414999999999,30018.6,52117.29,41357.07,29204.594999999998,21274.695,16749.585,-101.25,0.0
1789861800.561496,13913.595,30011.805,52115.085,41366.52,29208.015,21280.094999999998,16753.59,-97.065,0.0
1789861800.5615106,13927.095,30022.289999999997,52134.659999999996,41387.354999999996,29216.789999999997,21292.785,16765.605,-86.265,0.0
1789861800.5661051,13926.015,30033.945,52164.854999999996,41391.765,29224.89,21308.04,16761.375,-90.405,0.0
1789861800.5661187,13919.355,30038.129999999997,52146.27,41367.735,29217.78,21299.579999999998,16754.445,-99.585,0.0
1789861800.573717,13924.71,30026.699999999997,52106.805,41356.935,29219.625,21295.62,16757.145,-92.205,0.0
1789861800.5737495,13930.695,30031.649999999998,52106.939999999995,41358.645,29207.789999999997,21283.38,16755.704999999998,-88.38,0.0
1789861800.5741801,13923.359999999999,30023.73,52136.909999999996,41365.034999999996,29209.68,21287.655,16752.825,-91.71,0.0
1789861800.5741863,13933.35,30026.745,52122.104999999996,41363.369999999995,29215.754999999997,21301.155,16758.855,-80.28,0.0
1789861800.5771222,13931.685,30035.61,52115.625,41360.31,29213.414999999997,21298.95,16756.515,-83.205,0.0
1789861800.577148,13922.91,30033.899999999998,52149.915,41372.28,29221.02,21298.86,16753.41,-89.41499999999999,0.0
1789861800.5821571,13910.085,30018.78,52141.095,41385.195,29228.67,21297.239999999998,16746.39,-101.07,0.0
1789861800.582189,13919.22,30028.77,52148.924999999996,41381.235,29217.825,21295.079999999998,16747.47,-95.13,0.0
1789861800.587561,13939.785,30039.975,52132.545,41372.1,29223.225,21303.809999999998,16755.57,-78.03,0.0
1789861800.5875869,13933.755,30032.91,52113.329999999994,41362.38,29224.62,21302.82,16755.075,-80.19,0.0
1789861800.592554,13927.005,30032.235,52109.145,41365.89,29224.079999999998,21299.85,16752.375,-85.365,0.0
1789861800.5925765,13929.435,30033.225,52109.729999999996,41362.695,29206.485,21288.149999999998,16750.079999999998,-86.67,0.0
1789861800.594294,13919.58,30031.469999999998,52147.845,41366.97,29198.789999999997,21279.51,16726.95,-97.695,0.0
1789861800.5943067,13926.105,30045.78,52162.604999999996,41381.415,29210.805,21286.98,16719.434999999998,-92.115,0.0
1789861800.600163,13918.23,30025.574999999997,52109.369999999995,41373.27,29212.559999999998,21284.46,16735.32,-96.255,0.0
1789861800.6001828,13910.67,29998.62,52096.095,41378.265,29217.735,21292.245,16757.145,-99.72,0.0
1789861800.602081,13913.234999999999,30007.844999999998,52115.715,41385.645,29217.735,21294.719999999998,16746.795,-100.395,0.0
1789861800.6020901,13930.56,30036.285,52122.645,41389.38,29226.105,21303.405,16741.17,-89.64,0.0
1789861800.6066897,13936.185,30043.35,52130.204999999994,41374.439999999995,29218.545,21301.829999999998,16746.434999999998,-83.565,0.0
1789861800.606716,13927.635,30036.6,52135.155,41365.935,29206.844999999998,21288.329999999998,16746.255,-90.405,0.0
1789861800.6111867,13916.654999999999,30026.385,52112.97,41348.61,29190.51,21279.285,16744.05,-101.97,0.0
1789861800.6112127,13915.935,30023.73,52121.384999999995,41355.54,29199.51,21280.454999999998,16737.93,-102.55499999999999,0.0
1789861800.620202,13923.945,30026.879999999997,52140.869999999995,41369.85,29209.094999999998,21284.415,16737.255,-95.80499999999999,0.0
1789861800.62022,13914.314999999999,30014.01,52124.49,41363.505,29203.335,21281.445,16731.18,-104.265,0.0
1789861800.62024,13914.675,30017.655,52123.229999999996,41360.76,29205.675,21282.21,16729.11,-103.32,0.0
1789861800.6202493,13916.97,30022.335,52126.92,41367.42,29224.26,21297.285,16732.485,-99.45,0.0
1789861800.6215796,13928.22,30022.829999999998,52130.744999999995,41374.89,29225.879999999997,21299.985,16737.434999999998,-86.445,0.0
1789861800.6215909,13931.73,30029.579999999998,52134.119999999995,41372.325,29210.94,21297.915,16738.92,-84.375,0.0
1789861800.6260948,13929.75,30037.184999999998,52133.22,41368.59,29223.0,21301.559999999998,16737.03,-88.28999999999999,0.0
1789861800.6261077,13918.23,30017.925,52120.935,41366.52,29211.164999999997,21297.78,16731.405,-99.27,0.0
1789861800.632388,13919.13,30016.26,52133.085,41403.689999999995,29244.825,21322.125,16731.225,-97.28999999999999,0.0
1789861800.6324153,13932.945,30037.5,52143.659999999996,41400.18,29208.825,21291.75,16733.745,-89.1,0.0
1789861800.636628,13944.734999999999,30050.145,52118.415,41372.01,29190.78,21274.695,16732.755,-81.63,0.0
1789861800.6366596,13933.619999999999,30037.995,52138.53,41371.29,29194.335,21278.79,16722.809999999998,-90.49499999999999,0.0
1789861800.6371934,13923.045,30035.655,52164.18,41377.635,29200.454999999998,21286.035,16719.795,-98.36999999999999,0.0
1789861800.6372263,13921.875,30037.635,52151.67,41373.45,29203.605,21284.055,16719.975,-101.42999999999999,0.0
1789861800.642974,13933.394999999999,30043.305,52152.39,41380.47,29211.03,21273.57,16718.445,-89.865,0.0
1789861800.643005,13932.314999999999,30029.535,52161.435,41391.99,29210.85,21281.535,16718.805,-86.265,0.0
1789861800.6461112,13931.01,30016.305,52151.579999999994,41398.515,29219.76,21304.8,16719.93,-87.11999999999999,0.0
1789861800.6461432,13927.185,30019.635,52127.549999999996,41382.585,29209.95,21292.38,16717.995,-92.74499999999999,0.0
1789861800.6501176,13928.805,30028.454999999998,52166.97,41398.604999999996,29227.86,21303.719999999998,16700.579999999998,-91.755,0.0
1789861800.6501403,13919.58,30017.475,52143.975,41391.045,29256.66,21319.065,16694.055,-100.61999999999999,0.0
1789861800.65354,13929.795,30027.285,52133.67,41382.854999999996,29208.51,21314.295,16714.62,-92.78999999999999,0.0
1789861800.6535673,13943.925,30044.16,52116.119999999995,41363.46,29185.92,21290.625,16753.5,-79.92,0.0
1789861800.6590378,13945.095,30043.754999999997,52092.27,41350.635,29191.5,21276.54,16750.17,-77.715,0.0
1789861800.6590497,13939.109999999999,30037.86,52100.189999999995,41359.005,29193.03,21276.27,16733.43,-83.38499999999999,0.0
1789861800.6615,13923.99,30025.485,52106.715,41355.854999999996,29195.46,21277.26,16726.725,-97.02,0.0
1789861800.6615188,13924.394999999999,30025.62,52106.985,41365.034999999996,29204.055,21283.335,16719.75,-96.705,0.0
1789861800.6662488,13936.455,30032.774999999998,52123.229999999996,41380.604999999996,29213.684999999998,21295.71,16726.77,-82.845,0.0
1789861800.6662712,13927.23,30022.695,52120.665,41376.645,29206.98,21288.149999999998,16727.13,-91.53,0.0
1789861800.6705644,13926.689999999999,30019.68,52123.86,41364.72,29221.92,21298.635,16725.105,-92.16,0.0
1789861800.6705883,13933.439999999999,30025.98,52142.174999999996,41385.555,29252.16,21314.07,16723.755,-86.49,0.0
1789861800.6741168,13943.654999999999,30049.11,52162.784999999996,41406.659999999996,29189.745,21279.329999999998,16724.745,-79.38,0.0
1789861800.67413,13940.1,30051.765,52162.155,41399.1,29191.5,21283.695,16724.88,-82.17,0.0
1789861800.677538,13941.945,30044.43,52138.979999999996,41388.93,29204.19,21291.614999999998,16725.42,-83.115,0.0
1789861800.6775663,13940.369999999999,30037.32,52130.564999999995,41383.485,29209.86,21296.88,16712.28,-85.455,0.0
1789861800.6824696,13930.65,30031.469999999998,52143.525,41387.31,29211.48,21294.315,16682.265,-96.39,0.0
1789861800.6824832,13937.039999999999,30041.504999999997,52159.725,41393.159999999996,29214.18,21291.885,16684.11,-92.88,0.0
1789861800.6861951,13942.125,30045.51,52155.9,41402.43,29222.954999999998,21301.605,16729.92,-82.125,0.0
1789861800.686229,13932.135,30018.69,52115.354999999996,41394.284999999996,29218.41,21296.024999999998,16753.005,-87.16499999999999,0.0
1789861800.6901016,13929.48,30019.184999999998,52113.329999999994,41380.92,29201.67,21281.399999999998,16734.96,-93.33,0.0
1789861800.690117,13926.42,30029.94,52166.115,41379.21,29197.89,21281.67,16721.73,-98.1,0.0
1789861800.6935327,13935.33,30043.17,52176.735,41397.21,29214.315,21299.309999999998,16723.395,-89.72999999999999,0.0
1789861800.6935465,13944.51,30053.385,52141.77,41392.08,29217.87,21304.485,16720.965,-84.015,0.0
1789861800.6980977,13946.76,30048.074999999997,52134.704999999994,41382.63,29215.079999999998,21303.09,16723.035,-81.53999999999999,0.0
1789861800.6981127,13936.005,30035.34,52136.055,41379.03,29212.739999999998,21298.23,16721.595,-90.675,0.0
1789861800.7014177,13938.255,30040.785,52154.595,41394.51,29219.175,21303.135,16719.48,-88.515,0.0
1789861800.701432,13939.109999999999,30030.39,52157.295,41393.07,29215.53,21286.305,16717.86,-87.84,0.0
1789861800.7061007,13948.56,30044.34,52169.939999999995,41398.064999999995,29218.32,21285.54,16728.255,-77.445,0.0
1789861800.7061155,13943.925,30053.61,52174.079999999994,41396.805,29215.53,21287.7,16715.97,-83.7,0.0
1789861800.7105813,13937.76,30034.53,52166.52,41398.65,29223.405,21301.649999999998,16651.44,-93.06,0.0
1789861800.7106004,13953.195,30053.07,52174.71,41413.32,29242.8,21320.235,16593.03,-88.155,0.0
1789861800.7166872,13950.045,30060.809999999998,52164.18,41403.195,29228.67,21308.715,16634.16,-90.045,0.0
1789861800.7167184,13920.75,30030.344999999998,52165.53,41382.585,29205.045,21288.059999999998,16751.52,-102.78,0.0
1789861800.718069,13921.965,30020.129999999997,52151.85,41381.01,29198.204999999998,21279.87,16768.71,-96.39,0.0
1789861800.7180996,13929.119999999999,30024.18,52121.475,41389.74,29222.55,21306.195,16751.745,-89.325,0.0
1789861800.7231688,13925.564999999999,30018.51,52117.155,41389.515,29230.155,21308.399999999998,16727.535,-94.545,0.0
1789861800.7231872,13926.869999999999,30017.61,52128.765,41376.33,29211.795,21289.41,16711.155,-96.705,0.0
1789861800.7254558,13939.064999999999,30033.899999999998,52159.454999999994,41378.445,29190.735,21275.954999999998,16715.61,-89.595,0.0
1789861800.7254677,13928.49,30025.26,52132.86,41377.049999999996,29177.594999999998,21271.545,16721.145,-100.66499999999999,0.0
1789861800.730605,13923.494999999999,30022.965,52117.695,41378.76,29205.045,21291.975,16733.295,-102.86999999999999,0.0
1789861800.7306252,13926.105,30028.32,52126.2,41384.385,29219.94,21296.295,16724.52,-101.07,0.0
1789861800.7343764,13935.06,30037.004999999997,52155.045,41392.935,29220.704999999998,21309.12,16722.63,-93.24,0.0
1789861800.7343912,13943.205,30036.78,52165.71,41396.805,29194.92,21280.545,16716.465,-87.795,0.0
1789861800.738304,13935.96,30023.235,52170.93,41395.455,29184.39,21270.015,16712.684999999998,-93.015,0.0
1789861800.7383256,13921.92,30010.454999999998,52153.65,41388.615,29196.719999999998,21278.88,16708.635,-105.435,0.0
1789861800.742302,13933.574999999999,30025.125,52085.115,41370.57,29200.14,21284.01,16711.02,-97.92,0.0
1789861800.7423177,13936.5,30035.61,52091.909999999996,41363.415,29197.98,21284.01,16708.095,-96.345,0.0
1789861800.7462533,13942.125,30044.16,52138.395,41375.835,29207.61,21297.285,16708.995,-91.44,0.0
1789861800.7462685,13928.67,30024.315,52141.634999999995,41382.494999999995,29208.465,21289.184999999998,16703.28,-102.195,0.0
1789861800.7513473,13931.369999999999,30027.015,52166.835,41397.93,29214.495,21294.63,16699.95,-99.0,0.0
1789861800.7513676,13924.98,30037.14,52199.415,41396.58,29207.07,21284.684999999998,16696.26,-105.795,0.0
1789861800.753469,13941.63,30050.55,52164.674999999996,41391.674999999996,29219.039999999997,21298.05,16701.93,-93.195,0.0
1789861800.7534833,13948.064999999999,30056.85,52112.34,41374.935,29195.28,21286.215,16703.145,-91.30499999999999,0.0
1789861800.7582245,13943.97,30039.57,52116.435,41379.795,29197.305,21286.079999999998,16702.29,-93.24,0.0
1789861800.7582383,13938.795,30019.184999999998,52137.494999999995,41399.64,29207.745,21289.32,16701.614999999998,-94.725,0.0
1789861800.761587,13942.71,30019.41,52152.435,41413.635,29219.85,21301.02,16700.309999999998,-89.685,0.0
1789861800.7616,13939.965,30026.16,52151.31,41405.58,29217.96,21295.62,16699.59,-93.78,0.0
1789861800.7661483,13956.705,30060.719999999998,52162.604999999996,41403.555,29229.93,21314.88,16705.575,-81.09,0.0
1789861800.766158,13953.33,30052.71,52160.22,41404.59,29230.335,21312.27,16706.88,-80.145,0.0
1789861800.77051,13951.574999999999,30044.204999999998,52144.515,41402.159999999996,29220.84,21302.1,16706.295,-82.17,0.0
1789861800.7705228,13944.779999999999,30037.59,52119.045,41386.905,29209.5,21293.594999999998,16701.48,-89.64,0.0
1789861800.7741287,13951.439999999999,30043.125,52132.365,41379.975,29206.89,21292.785,16693.11,-82.845,0.0
1789861800.7741401,13945.769999999999,30038.535,52139.97,41377.229999999996,29201.76,21291.795,16690.184999999998,-83.835,0.0
1789861800.778234,13936.365,30035.52,52152.93,41384.52,29201.805,21290.445,16696.035,-93.375,0.0
1789861800.7782483,13931.91,30027.42,52142.265,41385.96,29205.045,21288.42,16686.765,-97.11,0.0
1789861800.782214,13931.055,30016.934999999998,52134.795,41394.104999999996,29217.96,21302.91,16685.82,-95.94,0.0
1789861800.7822256,13944.96,30026.385,52138.395,41405.13,29231.235,21311.594999999998,16697.61,-83.88,0.0
1789861800.7890108,13947.435,30037.32,52145.28,41400.72,29221.605,21300.75,16699.635,-81.53999999999999,0.0
1789861800.7890248,13944.914999999999,30057.704999999998,52161.975,41394.869999999995,29211.57,21292.875,16691.985,-88.155,0.0
1789861800.7890394,13939.38,30039.885,52156.259999999995,41396.67,29212.02,21290.805,16689.96,-90.53999999999999,0.0
1789861800.789045,13933.484999999999,30021.21,52149.06,41396.58,29207.969999999998,21286.665,16684.515,-94.99499999999999,0.0
1789861800.7936847,13942.394999999999,30028.86,52159.275,41405.265,29215.575,21298.815,16686.135,-87.435,0.0
1789861800.7937002,13938.48,30032.324999999997,52144.829999999994,41393.07,29208.87,21293.055,16691.94,-91.845,0.0
1789861800.7974055,13936.185,30029.67,52145.235,41396.04,29212.379999999997,21294.18,16694.28,-92.52,0.0
1789861800.7974193,13938.39,30036.149999999998,52146.494999999995,41399.01,29217.285,21298.545,16691.67,-90.17999999999999,0.0
1789861800.8037045,13949.1,30045.465,52142.85,41404.275,29225.879999999997,21308.579999999998,16695.18,-80.325,0.0
1789861800.8037188,13949.64,30036.6,52142.895,41409.314999999995,29226.735,21310.38,16697.61,-79.515,0.0
1789861800.8067727,13942.439999999999,30023.28,52151.805,41407.515,29218.274999999998,21300.48,16695.72,-83.565,0.0
1789861800.8067844,13929.48,30014.594999999998,52160.579999999994,41395.725,29203.425,21285.809999999998,16687.62,-96.52499999999999,0.0
1789861800.810222,13934.385,30029.76,52151.354999999996,41386.86,29206.934999999998,21288.059999999998,16686.405,-97.24499999999999,0.0
1789861800.8102388,13934.97,30033.809999999998,52137.674999999996,41385.51,29220.704999999998,21294.27,16684.02,-96.52499999999999,0.0
1789861800.8145123,13935.375,30026.655,52144.47,41382.72,29198.385,21274.695,16683.345,-93.645,0.0
1789861800.8145292,13932.045,30026.835,52154.954999999994,41399.775,29197.8,21272.535,16677.72,-99.315,0.0
1789861800.8190706,13936.32,30021.93,52124.534999999996,41406.03,29208.105,21289.32,16680.645,-96.255,0.0
1789861800.8190846,13938.119999999999,30016.485,52120.935,41390.64,29222.01,21298.41,16682.579999999998,-94.455,0.0
1789861800.8214998,13941.135,30025.754999999997,52142.174999999996,41385.78,29210.895,21285.855,16682.085,-92.61,0.0
1789861800.8215156,13950.18,30041.01,52125.659999999996,41399.82,29196.629999999997,21282.57,16681.005,-87.47999999999999,0.0
1789861800.8278372,13964.355,30057.12,52155.45,41402.07,29189.7,21281.13,16678.62,-76.41,0.0
1789861800.8278654,13955.265,30047.535,52149.78,41398.244999999995,29195.145,21279.645,16679.07,-81.315,0.0
1789861800.8367238,13946.085,30037.545,52143.659999999996,41399.729999999996,29206.44,21291.03,16687.35,-85.455,0.0
1789861800.8367383,13935.914999999999,30020.129999999997,52139.835,41403.869999999995,29210.76,21288.78,16680.825,-95.35499999999999,0.0
1789861800.836754,13940.189999999999,30029.445,52148.744999999995,41402.88,29199.555,21273.704999999998,16673.309999999998,-96.795,0.0
1789861800.83676,13938.93,30042.045,52174.799999999996,41402.07,29194.829999999998,21269.16,16671.059999999998,-99.405,0.0
1789861800.8385572,13936.769999999999,30028.905,52185.195,41395.994999999995,29197.62,21273.255,16676.595,-97.11,0.0
1789861800.8385715,13936.05,30025.035,52156.935,41386.68,29239.155,21291.75,16677.855,-95.35499999999999,0.0
1789861800.84435,13958.144999999999,30048.3,52119.854999999996,41401.53,29230.155,21299.94,16686.18,-78.705,0.0
1789861800.8443627,13963.994999999999,30046.995,52109.909999999996,41386.814999999995,29173.004999999997,21269.79,16686.045,-75.33,0.0
1789861800.848528,13958.595,30046.05,52140.06,41404.409999999996,29215.8,21282.12,16679.835,-79.965,0.0
1789861800.8485386,13951.08,30042.405,52152.525,41407.11,29205.18,21275.46,16679.79,-84.86999999999999,0.0
1789861800.8526776,13944.51,30045.105,52153.829999999994,41404.455,29201.309999999998,21272.085,16671.149999999998,-93.465,0.0
1789861800.8526905,13943.205,30042.585,52186.545,41422.455,29212.875,21303.495,16669.98,-93.55499999999999,0.0
1789861800.8569527,13934.88,30030.344999999998,52188.75,41403.915,29195.235,21288.6,16674.03,-98.505,0.0
1789861800.8569653,13944.51,30037.32,52140.96,41389.695,29192.67,21282.66,16676.954999999998,-91.395,0.0
1789861800.8617857,13945.725,30038.895,52102.395,41374.35,29193.48,21287.61,16679.79,-87.615,0.0
1789861800.86183,13940.955,30029.265,52116.975,41385.195,29198.61,21284.235,16676.145,-91.215,0.0
1789861800.8652887,13940.91,30025.89,52123.86,41381.055,29189.835,21279.329999999998,16665.885,-94.27499999999999,0.0
1789861800.8653276,13932.945,30029.535,52162.155,41404.814999999995,29212.469999999998,21312.18,16655.895,-100.935,0.0
1789861800.8666666,13946.355,30042.405,52178.174999999996,41427.27,29225.16,21296.475,16665.93,-88.515,0.0
1789861800.8666828,13943.835,30036.555,52098.57,41399.549999999996,29211.524999999998,21292.245,16669.035,-92.925,0.0
1789861800.8720057,13936.32,30031.11,52098.975,41388.525,29211.885,21311.505,16662.78,-97.83,0.0
1789861800.8720396,13942.035,30035.385,52123.32,41393.025,29206.664999999997,21290.309999999998,16646.805,-93.465,0.0
1789861800.875819,13942.125,30037.05,52145.909999999996,41400.945,29209.905,21286.035,16640.864999999998,-91.89,0.0
1789861800.8758588,13933.98,30027.329999999998,52126.56,41385.42,29197.35,21277.17,16655.985,-100.44,0.0
1789861800.8785074,13951.26,30038.895,52120.215,41370.345,29181.78,21271.23,16679.61,-86.265,0.0
1789861800.8785524,13948.38,30022.829999999998,52123.14,41385.33,29193.164999999997,21278.34,16669.98,-88.785,0.0
1789861800.8849037,13930.695,29997.36,52115.985,41392.619999999995,29193.254999999997,21274.559999999998,16663.32,-99.225,0.0
1789861800.8849392,13934.07,30031.605,52116.075,41391.135,29200.23,21283.695,16659.72,-99.49499999999999,0.0
1789861800.887674,13948.515,30051.18,52123.86,41398.83,29210.535,21296.25,16665.704999999998,-88.515,0.0
1789861800.887719,13941.18,30041.01,52124.354999999996,41388.525,29195.684999999998,21280.005,16661.16,-95.67,0.0
1789861800.89097,13943.07,30039.57,52132.86,41383.665,29193.434999999998,21280.094999999998,16659.315,-94.77,0.0
1789861800.89101,13949.685,30048.074999999997,52144.155,41392.619999999995,29202.975,21288.285,16655.265,-88.785,0.0
1789861800.8941689,13951.305,30052.17,52149.555,41386.77,29195.28,21280.725,16651.98,-87.03,0.0
1789861800.8941967,13938.93,30044.835,52154.235,41398.02,29210.805,21288.825,16648.695,-98.64,0.0
1789861800.9006073,13946.31,30041.504999999997,52165.845,41417.505,29219.309999999998,21304.035,16653.555,-92.02499999999999,0.0
1789861800.900647,13946.76,30038.715,52154.595,41407.11,29204.774999999998,21285.585,16653.915,-89.685,0.0
1789861800.902852,13936.769999999999,30043.934999999998,52140.284999999996,41391.494999999995,29191.5,21272.579999999998,16649.595,-98.82,0.0
1789861800.902877,13942.484999999999,30045.195,52134.39,41392.35,29201.579999999998,21282.885,16655.489999999998,-96.03,0.0
1789861800.9063745,13957.56,30043.844999999998,52136.145,41403.42,29214.27,21292.245,16661.07,-80.955,0.0
1789861800.9064028,13943.115,30016.934999999998,52146.45,41408.685,29220.21,21293.505,16658.055,-88.64999999999999,0.0
1789861800.9105816,13933.17,30009.059999999998,52138.305,41404.77,29203.155,21287.204999999998,16650.989999999998,-96.435,0.0
1789861800.9106083,13947.795,30030.885,52123.545,41392.17,29192.535,21287.88,16653.735,-88.065,0.0
1789861800.913566,13936.41,30022.649999999998,52125.884999999995,41366.34,29185.11,21278.925,16656.075,-97.92,0.0
1789861800.9136016,13924.664999999999,30024.855,52161.795,41395.77,29211.164999999997,21289.32,16653.059999999998,-109.17,0.0
1789861800.9199395,13940.73,30048.885,52196.67,41418.63,29209.454999999998,21288.42,16649.01,-98.505,0.0
1789861800.9199677,13957.064999999999,30041.73,52117.784999999996,41398.38,29199.825,21288.105,16661.565,-83.655,0.0
1789861800.9224415,13953.42,30047.219999999998,52092.585,41371.604999999996,29184.795,21271.454999999998,16656.3,-90.945,0.0
1789861800.922482,13950.135,30052.26,52126.92,41378.76,29185.515,21269.655,16647.48,-95.175,0.0
1789861800.926518,13946.085,30051.495,52143.975,41386.229999999996,29214.135,21292.02,16645.86,-94.005,0.0
1789861800.926545,13935.06,30021.614999999998,52134.255,41391.405,29192.805,21269.655,16645.59,-98.505,0.0
1789861800.9311783,13937.715,30014.91,52127.549999999996,41387.534999999996,29163.105,21256.695,16646.04,-97.02,0.0
1789861800.9312053,13931.73,30019.59,52130.7,41384.52,29197.71,21275.235,16638.12,-105.16499999999999,0.0
1789861800.9341898,13942.35,30036.285,52158.329999999994,41411.159999999996,29205.765,21291.255,16623.225,-98.865,0.0
1789861800.9342074,13941.135,30032.504999999997,52147.935,41402.88,29195.01,21275.505,16616.295,-99.27,0.0
1789861800.938662,13946.085,30030.164999999997,52144.47,41398.56,29187.945,21250.575,16631.505,-95.13,0.0
1789861800.9386852,13950.585,30031.379999999997,52144.11,41396.534999999996,29180.879999999997,21261.329999999998,16649.145,-88.695,0.0
1789861800.9423523,13945.769999999999,30030.93,52131.735,41392.799999999996,29188.26,21269.565,16637.22,-92.16,0.0
1789861800.9423804,13940.73,30023.235,52111.619999999995,41375.97,29182.454999999998,21265.38,16646.13,-94.815,0.0
1789861800.9462016,13947.39,30031.605,52134.884999999995,41394.96,29199.87,21273.03,16648.335,-89.19,0.0
1789861800.9462187,13940.279999999999,30029.039999999997,52139.43,41391.225,29186.46,21256.92,16634.745,-98.865,0.0
1789861800.9506383,13942.484999999999,30031.335,52142.985,41399.505,29198.16,21270.285,16632.27,-97.065,0.0
1789861800.9506588,13936.949999999999,30023.28,52129.485,41389.02,29192.895,21268.125,16640.954999999998,-100.89,0.0
1789861800.9541025,13941.63,30025.844999999998,52127.505,41382.765,29186.46,21267.765,16640.82,-96.57,0.0
1789861800.954112,13952.519999999999,30034.89,52139.43,41392.575,29193.075,21275.145,16640.595,-87.03,0.0
1789861800.9587924,13952.925,30032.28,52139.97,41398.74,29192.085,21270.96,16640.325,-87.615,0.0
1789861800.9588284,13944.869999999999,30025.62,52147.979999999996,41400.585,29198.295,21276.405,16636.41,-92.88,0.0
1789861800.9623685,13941.494999999999,30017.835,52139.34,41393.43,29195.37,21274.11,16634.97,-96.92999999999999,0.0
1789861800.9623995,13949.595,30021.704999999998,52158.825,41411.97,29216.745,21290.94,16637.76,-90.315,0.0
1789861800.9662554,13941.09,30013.155,52190.685,41421.869999999995,29251.305,21303.63,16640.91,-95.715,0.0
1789861800.9662707,13938.029999999999,30012.93,52165.17,41415.345,29224.934999999998,21287.024999999998,16635.915,-101.78999999999999,0.0
1789861800.9722824,13955.67,30040.515,52121.97,41393.744999999995,29171.295,21257.55,16639.065,-88.515,0.0
1789861800.9723053,13955.355,30046.14,52174.125,41412.51,29191.364999999998,21256.695,16629.795,-90.405,0.0
1789861800.974078,13948.38,30036.51,52132.95,41394.42,29199.059999999998,21274.829999999998,16620.165,-97.515,0.0
1789861800.9740925,13954.275,30039.885,52096.14,41374.845,29192.985,21279.285,16613.37,-94.095,0.0
1789861800.978278,13956.615,30034.035,52111.575,41380.92,29189.835,21260.475,16625.25,-88.695,0.0
1789861800.9782965,13953.15,30030.885,52131.96,41399.505,29200.77,21282.03,16630.875,-91.485,0.0
1789861800.982188,13950.135,30029.309999999998,52134.704999999994,41394.195,29186.954999999998,21259.485,16649.46,-90.53999999999999,0.0
1789861800.9822066,13948.83,30023.46,52129.17,41392.485,29200.32,21273.57,16642.395,-92.38499999999999,0.0
1789861800.9861023,13961.295,30028.004999999997,52152.119999999995,41421.284999999996,29210.67,21285.495,16639.38,-81.99,0.0
1789861800.9861178,13956.705,30019.5,52130.43,41418.585,29195.82,21280.094999999998,16639.38,-86.35499999999999,0.0
1789861800.992504,13962.734999999999,30034.17,52116.345,41402.25,29209.77,21289.184999999998,16637.085,-81.765,0.0
1789861800.9925196,13957.38,30036.735,52130.07,41376.96,29180.655,21265.92,16634.565,-87.39,0.0
1789861800.9938228,13958.234999999999,30035.789999999997,52134.345,41383.485,29182.5,21269.565,16635.195,-88.02,0.0
1789861800.9938369,13964.805,30042.449999999997,52158.465,41407.244999999995,29204.73,21285.315,16637.579999999998,-83.115,0.0
1789861801.0002484,13966.109999999999,30037.41,52166.115,41402.61,29204.594999999998,21291.93,16639.335,-82.71,0.0
1789861801.0002697,13954.68,30020.085,52136.46,41403.735,29209.86,21288.105,16637.67,-89.685,0.0
1789861801.002657,13960.484999999999,30043.17,52161.525,41411.025,29207.34,21286.8,16634.88,-85.905,0.0
1789861801.0026753,13959.045,30058.11,52172.235,41400.36,29191.364999999998,21275.774999999998,16633.26,-89.28,0.0
1789861801.0060203,13959.359999999999,30028.77,52170.479999999996,41408.369999999995,29204.414999999997,21283.875,16633.395,-83.25,0.0
1789861801.0060403,13952.16,30003.57,52197.165,41421.51,29208.329999999998,21282.524999999998,16630.559999999998,-89.82,0.0
1789861801.0158732,13960.484999999999,30012.48,52196.67,41414.31,29207.745,21281.579999999998,16631.505,-85.905,0.0
1789861801.015914,13979.43,30049.739999999998,52121.61,41393.25,29198.204999999998,21279.915,16638.12,-74.78999999999999,0.0
1789861801.0159523,13970.34,30052.844999999998,52121.43,41384.025,29184.524999999998,21267.45,16629.03,-84.55499999999999,0.0
1789861801.0159705,13968.585,30046.184999999998,52137.36,41398.11,29206.485,21284.684999999998,16624.485,-84.42,0.0
1789861801.0175452,13958.369999999999,30030.21,52144.335,41410.125,29208.149999999998,21283.965,16620.39,-92.25,0.0
1789861801.017565,13970.88,30028.77,52181.729999999996,41424.84,29212.11,21289.23,16625.204999999998,-81.675,0.0
1789861801.0242045,13969.35,30033.585,52197.479999999996,41421.465,29205.675,21278.34,16630.559999999998,-83.02499999999999,0.0
1789861801.0242403,13973.31,30047.579999999998,52144.56,41393.475,29195.01,21274.425,16636.86,-79.24499999999999,0.0
1789861801.0262172,13981.23,30054.69,52138.259999999995,41397.075,29201.985,21288.285,16638.93,-70.02,0.0
1789861801.0262463,13968.945,30038.129999999997,52149.555,41397.119999999995,29201.309999999998,21282.075,16630.02,-81.765,0.0
1789861801.0297863,13975.785,30039.254999999997,52162.38,41408.055,29222.46,21297.555,16633.98,-74.74499999999999,0.0
1789861801.0298324,13972.949999999999,30030.12,52149.735,41413.95,29212.515,21292.245,16637.985,-79.24499999999999,0.0
1789861801.0354135,13969.305,30021.57,52152.21,41417.685,29217.78,21296.835,16638.39,-81.315,0.0
1789861801.0354328,13971.734999999999,30025.664999999997,52149.645,41417.46,29228.489999999998,21303.36,16636.995,-80.00999999999999,0.0
1789861801.0384705,13974.795,30042.989999999998,52150.32,41411.43,29230.335,21300.3,16635.42,-76.86,0.0
1789861801.0385091,13982.67,30052.485,52198.38,41438.61,29229.795,21300.885,16632.27,-68.715,0.0
1789861801.0425608,13982.894999999999,30058.739999999998,52187.759999999995,41435.369999999995,29222.954999999998,21300.704999999998,16633.98,-67.905,0.0
1789861801.04258,13979.654999999999,30052.485,52144.604999999996,41405.13,29214.18,21296.88,16636.454999999998,-71.505,0.0
1789861801.0471468,13989.465,30063.87,52146.81,41405.67,29222.37,21301.02,16634.88,-62.955,0.0
1789861801.047181,13972.635,30049.559999999998,52152.435,41418.72,29232.495,21300.84,16626.285,-77.39999999999999,0.0
1789861801.0526102,13976.369999999999,30049.739999999998,52160.805,41423.58,29213.055,21292.695,16625.61,-75.50999999999999,0.0
1789861801.0526457,13989.24,30067.965,52172.28,41428.53,29221.335,21299.805,16631.235,-66.825,0.0
1789861801.0538435,13995.585,30070.754999999997,52180.11,41422.77,29218.995,21293.1,16630.065,-62.64,0.0
1789861801.0538833,13984.289999999999,30057.03,52195.814999999995,41420.43,29206.62,21287.16,16612.02,-71.73,0.0
1789861801.0585728,13990.14,30063.195,52218.585,41442.21,29224.215,21303.63,16621.47,-65.88,0.0
1789861801.0586097,14003.279999999999,30073.23,52165.17,41415.705,29215.485,21298.094999999998,16650.855,-54.135,0.0
1789861801.066609,13992.164999999999,30057.21,52160.895,41396.534999999996,29237.265,21303.0,16658.46,-60.254999999999995,0.0
1789861801.0666292,13978.215,30040.469999999998,52191.405,41436.945,29235.059999999998,21297.42,16641.495,-71.595,0.0
1789861801.0666492,13991.31,30057.3,52188.299999999996,41462.909999999996,29223.18,21308.13,16642.934999999998,-62.64,0.0
1789861801.0666552,13994.73,30067.559999999998,52177.68,41439.42,29195.145,21292.11,16639.425,-64.935,0.0
1789861801.0700703,14003.91,30073.725,52192.755,41438.07,29215.98,21296.655,16634.7,-56.114999999999995,0.0
1789861801.0700865,13995.135,30063.69,52174.619999999995,41431.095,29215.035,21295.215,16626.465,-62.73,0.0
1789861801.073348,13997.609999999999,30063.87,52167.465,41437.26,29223.0,21300.524999999998,16622.46,-61.11,0.0
1789861801.073364,14016.465,30088.17,52170.435,41447.835,29227.23,21302.505,16623.675,-48.464999999999996,0.0
1789861801.0780528,14012.73,30089.16,52197.704999999994,41435.909999999996,29227.5,21303.989999999998,16633.71,-47.925,0.0
1789861801.0780685,13989.555,30059.46,52185.15,41430.104999999996,29225.385,21304.035,16649.954999999998,-62.144999999999996,0.0
1789861801.0827086,13983.795,30052.89,52182.314999999995,41437.17,29232.225,21303.945,16645.454999999998,-69.435,0.0
1789861801.0827227,13991.625,30064.41,52193.61,41436.99,29234.295,21304.26,16640.954999999998,-65.295,0.0
1789861801.0859277,14004.045,30073.68,52195.14,41447.97,29254.68,21330.315,16639.38,-55.214999999999996,0.0
1789861801.0859404,13997.835,30062.024999999998,52182.63,41439.825,29220.48,21300.84,16630.829999999998,-58.815,0.0
1789861801.0900328,13996.845,30061.934999999998,52168.5,41433.659999999996,29219.67,21294.405,16630.559999999998,-60.12,0.0
1789861801.0900517,13996.845,30069.225,52188.884999999995,41437.485,29224.53,21300.21,16644.42,-61.785,0.0
1789861801.0938327,14015.385,30083.85,52180.695,41437.034999999996,29237.489999999998,21318.165,16657.335,-47.519999999999996,0.0
1789861801.0938463,14007.644999999999,30079.844999999998,52187.265,41438.835,29237.625,21315.329999999998,16648.785,-54.405,0.0
1789861801.0981543,14007.869999999999,30081.96,52200.9,41443.56,29244.51,21321.36,16643.385,-54.269999999999996,0.0
1789861801.0981705,14005.664999999999,30080.43,52200.63,41436.135,29228.265,21306.6,16637.355,-57.464999999999996,0.0
1789861801.103674,14013.045,30080.835,52201.35,41444.28,29235.195,21313.485,16639.425,-51.165,0.0
1789861801.1036904,14003.775,30059.954999999998,52185.78,41439.96,29235.735,21312.899999999998,16640.01,-57.644999999999996,0.0
1789861801.1060448,14004.9,30067.289999999997,52191.854999999996,41441.534999999996,29237.445,21317.175,16639.29,-54.405,0.0
1789861801.1060581,13993.109999999999,30061.079999999998,52185.555,41435.865,29233.62,21311.235,16617.105,-66.24,0.0
1789861801.1092975,13997.07,30061.485,52189.695,41454.314999999995,29258.19,21328.605,16600.14,-63.72,0.0
1789861801.1093104,14018.58,30080.699999999997,52201.305,41469.21,29266.065,21341.835,16597.845,-49.14,0.0
1789861801.1140509,14022.72,30085.605,52208.595,41460.659999999996,29267.73,21343.32,16626.825,-46.665,0.0
1789861801.1140635,14017.32,30085.425,52215.57,41463.45,29262.42,21328.29,16646.985,-48.33,0.0
1789861801.1177583,14002.56,30072.87,52194.645,41435.46,29230.155,21305.88,16668.27,-53.595,0.0
1789861801.1177752,14003.64,30064.68,52213.634999999995,41465.79,29249.73,21327.255,16654.95,-53.235,0.0
1789861801.1232097,14003.55,30053.789999999997,52220.025,41470.784999999996,29229.21,21307.95,16646.715,-53.864999999999995,0.0
1789861801.1232271,14014.89,30077.91,52199.235,41458.77,29234.925,21311.01,16643.565,-50.22,0.0
1789861801.1259344,14038.785,30118.454999999998,52196.4,41435.46,29229.254999999997,21315.6,16650.135,-32.985,0.0
1789861801.1259503,14028.57,30107.25,52187.354999999996,41425.695,29229.66,21316.05,16645.995,-40.095,0.0
1789861801.1312835,14005.17,30071.024999999998,52192.755,41440.049999999996,29245.41,21315.375,16634.16,-58.995,0.0
1789861801.1313052,14004.99,30054.645,52198.515,41457.51,29243.295,21313.395,16627.05,-60.165,0.0
1789861801.134098,14005.755,30060.809999999998,52209.765,41453.46,29227.77,21310.02,16627.68,-58.184999999999995,0.0
1789861801.1341136,14009.4,30087.135,52205.759999999995,41442.479999999996,29228.715,21311.055,16628.22,-57.105,0.0
1789861801.1383643,14019.705,30115.53,52180.335,41431.229999999996,29237.535,21319.829999999998,16607.79,-52.11,0.0
1789861801.1383836,14015.654999999999,30101.985,52192.079999999994,41452.11,29250.045,21327.66,16599.51,-52.785,0.0
1789861801.1414013,14027.58,30097.934999999998,52198.92,41464.619999999995,29249.64,21323.07,16632.495,-40.86,0.0
1789861801.141415,14016.465,30081.87,52193.52,41453.325,29241.945,21321.045,16655.895,-48.42,0.0
1789861801.1458385,14030.414999999999,30097.934999999998,52213.634999999995,41463.225,29252.925,21332.16,16640.415,-38.745,0.0
1789861801.1458533,14028.48,30100.32,52217.505,41471.82,29250.135,21323.295,16634.43,-40.995,0.0
1789861801.1500397,14011.605,30083.309999999998,52200.045,41455.305,29248.92,21321.899999999998,16640.774999999998,-53.595,0.0
1789861801.1500561,14006.385,30076.335,52207.02,41457.735,29287.844999999998,21339.719999999998,16640.73,-56.07,0.0
1789861801.1534135,14023.439999999999,30091.32,52221.555,41467.905,29234.024999999998,21320.055,16642.035,-43.425,0.0
1789861801.153436,14035.14,30104.73,52223.445,41466.555,29228.309999999998,21322.71,16641.585,-35.64,0.0
1789861801.1580088,14026.41,30102.164999999997,52211.7,41454.854999999996,29236.77,21321.045,16638.75,-43.11,0.0
1789861801.1580243,14030.82,30105.719999999998,52221.42,41460.03,29244.195,21327.39,16638.075,-36.855,0.0
1789861801.1631646,14029.154999999999,30100.094999999998,52215.479999999996,41456.52,29245.274999999998,21327.885,16637.265,-37.754999999999995,0.0
1789861801.1631796,14021.01,30091.995,52207.155,41457.689999999995,29247.39,21327.66,16633.62,-45.72,0.0
1789861801.1659884,14027.76,30096.135,52211.835,41474.385,29265.885,21343.68,16638.21,-38.115,0.0
1789861801.1660037,14023.17,30083.895,52231.005,41474.159999999996,29265.03,21337.559999999998,16634.79,-41.894999999999996,0.0
1789861801.171908,14015.88,30063.239999999998,52231.545,41449.409999999996,29266.02,21329.325,16630.695,-50.489999999999995,0.0
1789861801.1719284,14009.894999999999,30059.594999999998,52259.31,41476.229999999996,29258.145,21326.535,16625.79,-54.765,0.0
1789861801.1739752,14015.34,30077.37,52267.994999999995,41490.27,29264.039999999997,21338.73,16629.075,-48.239999999999995,0.0
1789861801.1739888,14034.689999999999,30105.27,52124.67,41439.51,29241.135,21322.71,16637.985,-32.67,0.0
1789861801.1779947,14046.57,30122.954999999998,52148.204999999994,41430.555,29235.51,21319.875,16636.905,-26.189999999999998,0.0
1789861801.1780071,14035.68,30114.27,52210.034999999996,41451.479999999996,29248.469999999998,21326.94,16630.829999999998,-36.315,0.0
1789861801.1822455,14028.029999999999,30108.51,52215.795,41461.2,29255.805,21330.809999999998,16625.97,-43.425,0.0
1789861801.1822603,14023.71,30103.559999999998,52209.854999999996,41458.77,29252.745,21325.41,16621.92,-46.17,0.0
1789861801.1860816,14035.545,30108.96,52216.155,41465.835,29258.73,21330.945,16626.059999999998,-34.515,0.0
1789861801.1860986,14037.345,30102.704999999998,52206.075,41448.06,29251.71,21324.42,16631.954999999998,-33.839999999999996,0.0
1789861801.1900475,14023.71,30085.245,52183.71,41433.119999999995,29277.09,21338.55,16630.47,-44.73,0.0
1789861801.1900609,14033.564999999999,30100.274999999998,52195.77,41487.659999999996,29286.629999999997,21352.815,16633.485,-37.89,0.0
1789861801.1953588,14048.73,30116.969999999998,52206.57,41480.01,29234.07,21324.015,16637.715,-26.595,0.0
1789861801.1953857,14041.035,30110.129999999997,52224.075,41471.189999999995,29248.335,21326.04,16630.739999999998,-31.77,0.0
1789861801.1981552,14030.01,30106.17,52239.509999999995,41469.705,29249.954999999998,21322.485,16627.59,-42.885,0.0
1789861801.1981914,14034.42,30107.295,52233.93,41475.555,29261.61,21333.555,16628.445,-37.08,0.0
1789861801.203133,14029.83,30099.735,52220.835,41471.1,29259.36,21329.91,16628.805,-40.095,0.0
1789861801.2031505,14040.9,30105.405,52224.299999999996,41478.885,29267.91,21338.55,16631.774999999998,-30.645,0.0
1789861801.2147706,14037.705,30088.844999999998,52209.63,41482.619999999995,29273.085,21343.454999999998,16636.59,-29.115,0.0
1789861801.2147863,14019.435,30056.355,52185.915,41469.795,29262.059999999998,21332.385,16631.415,-41.714999999999996,0.0
1789861801.2148037,14018.984999999999,30073.86,52204.409999999996,41473.26,29257.92,21327.48,16624.845,-45.089999999999996,0.0
1789861801.2148101,14030.55,30111.434999999998,52227.9,41471.549999999996,29259.045,21329.145,16622.684999999998,-44.775,0.0
1789861801.2148178,14041.619999999999,30114.315,52236.225,41476.86,29268.629999999997,21340.395,16624.89,-35.19,0.0
1789861801.214824,14034.285,30105.0,52236.72,41476.409999999996,29265.57,21335.175,16609.995,-39.105,0.0
1789861801.217502,14041.484999999999,30116.835,52227.585,41479.875,29271.105,21338.594999999998,16601.895,-34.515,0.0
1789861801.2175145,14036.31,30110.085,52208.549999999996,41465.744999999995,29258.145,21329.055,16620.21,-40.68,0.0
1789861801.2226193,14037.525,30110.67,52212.735,41458.005,29248.515,21324.149999999998,16637.715,-39.464999999999996,0.0
1789861801.2226367,14047.109999999999,30118.725,52230.915,41473.17,29262.375,21333.51,16620.434999999998,-31.23,0.0
1789861801.2293963,14043.105,30114.36,52252.829999999994,41484.284999999996,29267.19,21334.005,16614.63,-33.12,0.0
1789861801.2294312,14031.494999999999,30096.405,52262.46,41490.405,29266.559999999998,21331.844999999998,16610.309999999998,-38.115,0.0
1789861801.2308035,14029.65,30090.239999999998,52254.585,41499.135,29274.39,21336.12,16596.225,-39.195,0.0
1789861801.2308254,14027.76,30099.285,52201.755,41479.38,29267.82,21330.855,16614.63,-43.155,0.0
1789861801.235546,14031.494999999999,30111.795,52182.45,41453.82,29261.52,21332.655,16648.245,-41.58,0.0
1789861801.235568,14029.515,30110.445,52230.78,41463.45,29263.32,21334.454999999998,16641.855,-42.975,0.0
1789861801.2465253,14040.269999999999,30119.85,52247.25,41481.045,29274.57,21342.285,16635.329999999998,-33.93,0.0
1789861801.246564,14035.859999999999,30117.735,52238.88,41478.21,29270.969999999998,21337.2,16626.555,-37.89,0.0
1789861801.2466028,14045.76,30118.004999999997,52220.43,41488.11,29284.605,21348.405,16611.075,-28.035,0.0
1789861801.24662,14054.805,30101.805,52209.72,41480.64,29281.364999999998,21346.245,16613.145,-21.419999999999998,0.0
1789861801.246638,14062.949999999999,30097.574999999997,52219.305,41476.59,29276.504999999997,21346.11,16640.46,-17.325,0.0
1789861801.246654,14057.595,30096.855,52221.555,41478.435,29274.3,21343.77,16652.34,-20.564999999999998,0.0
1789861801.2506144,14049.0,30110.579999999998,52222.409999999996,41479.74,29276.46,21341.969999999998,16640.415,-30.689999999999998,0.0
1789861801.250651,14045.67,30120.48,52218.765,41478.075,29279.25,21343.05,16633.305,-31.455,0.0
1789861801.2550118,14051.205,30122.73,52237.799999999996,41493.195,29288.745,21351.51,16631.91,-27.36,0.0
1789861801.2550285,14041.935,30107.024999999998,52236.134999999995,41494.5,29283.03,21345.975,16630.335,-33.21,0.0
1789861801.2584746,14053.904999999999,30130.289999999997,52246.17,41490.18,29280.059999999998,21350.52,16632.63,-26.955,0.0
1789861801.2585125,14063.85,30139.02,52238.07,41482.619999999995,29273.625,21347.55,16635.735,-20.43,0.0
1789861801.2628047,14049.9,30117.96,52213.994999999995,41478.57,29272.41,21342.78,16633.26,-28.439999999999998,0.0
1789861801.2628422,14051.07,30119.579999999998,52209.134999999995,41487.075,29285.325,21355.829999999998,16632.045,-25.29,0.0
1789861801.2664785,14044.859999999999,30119.399999999998,52234.56,41496.479999999996,29291.355,21356.82,16628.76,-30.105,0.0
1789861801.2665195,14039.73,30123.36,52266.24,41510.475,29297.835,21353.76,16621.92,-35.144999999999996,0.0
1789861801.2719543,14037.75,30101.579999999998,52230.825,41504.22,29295.315,21348.585,16626.42,-33.39,0.0
1789861801.2719696,14043.644999999999,30109.184999999998,52233.479999999996,41489.909999999996,29281.454999999998,21341.655,16624.8,-31.005,0.0
1789861801.2798727,14058.72,30129.66,52243.11,41478.885,29274.344999999998,21341.07,16625.385,-20.564999999999998,0.0
1789861801.2799091,14045.31,30115.17,52221.24,41472.27,29271.239999999998,21332.7,16618.5,-31.814999999999998,0.0
1789861801.279944,14045.039999999999,30117.329999999998,52244.909999999996,41485.994999999995,29278.35,21336.84,16618.32,-33.39,0.0
1789861801.27996,14047.244999999999,30110.219999999998,52247.924999999996,41503.095,29293.289999999997,21353.13,16623.495,-28.709999999999997,0.0
1789861801.2830477,14053.59,30115.62,52246.259999999995,41525.685,29314.079999999998,21371.985,16624.71,-21.645,0.0
1789861801.2830868,14057.01,30128.085,52265.07,41522.4,29319.885,21373.515,16625.79,-19.845,0.0
1789861801.2868335,14055.119999999999,30099.105,52253.954999999994,41531.58,29321.19,21372.03,16624.215,-17.865,0.0
1789861801.2868683,14054.49,30054.645,52222.905,41480.145,29274.12,21341.16,16619.579999999998,-18.495,0.0
1789861801.2930307,14063.984999999999,30077.28,52246.17,41461.965,29254.59,21335.985,16633.485,-11.969999999999999,0.0
1789861801.293046,14065.785,30097.079999999998,52247.835,41475.284999999996,29260.395,21333.915,16629.614999999998,-13.32,0.0
1789861801.2943828,14072.265,30130.739999999998,52260.165,41499.135,29278.754999999997,21342.059999999998,16627.41,-8.19,0.0
1789861801.294396,14063.76,30105.405,52266.329999999994,41525.549999999996,29296.62,21358.755,16628.76,-8.28,0.0
1789861801.2985454,14070.42,30113.954999999998,52278.795,41531.715,29295.585,21359.204999999998,16626.69,-6.345,0.0
1789861801.2985642,14054.445,30143.879999999997,52286.13,41524.92,29296.62,21351.51,16620.21,-21.915,0.0
1789861801.3025188,14041.08,30162.239999999998,52258.32,41494.59,29296.8,21348.63,16616.655,-38.61,0.0
1789861801.3025436,14055.3,30169.26,52238.295,41476.005,29292.795,21340.71,16623.405,-25.74,0.0
1789861801.313295,14075.685,30162.96,52262.954999999994,41507.055,29307.105,21325.05,16620.66,-13.365,0.0
1789861801.3133278,14073.48,30145.545,52260.479999999996,41514.84,29289.195,21310.515,16617.51,-12.915,0.0
1789861801.3133643,14073.029999999999,30126.195,52249.77,41502.96,29241.045,21297.149999999998,16618.454999999998,-10.844999999999999,0.0
1789861801.3133793,14076.9,30132.045,52250.985,41491.575,29222.73,21297.285,16616.7,-7.0649999999999995,0.0
1789861801.316292,14055.255,30123.36,52245.45,41499.18,29265.344999999998,21325.905,16616.43,-20.474999999999998,0.0
1789861801.3163147,14060.564999999999,30112.155,52256.295,41508.63,29282.039999999997,21330.989999999998,16615.485,-25.02,0.0
1789861801.317819,14086.755,30035.385,52263.405,41524.244999999995,29300.445,21341.024999999998,16623.765,-3.8699999999999997,0.0
1789861801.3178418,14088.06,29984.399999999998,52270.38,41535.99,29313.45,21374.055,16633.035,10.17,0.0
1789861801.3337414,14069.43,30077.37,52271.954999999994,41508.494999999995,29282.039999999997,21375.945,16636.23,0.315,0.0
1789861801.3337817,14058.72,30200.895,52284.284999999996,41507.1,29270.745,21364.785,16630.695,-16.02,0.0
1789861801.3338225,14083.425,30211.155,52297.11,41525.01,29313.18,21372.704999999998,16624.035,-10.754999999999999,0.0
1789861801.333841,14112.359999999999,30121.92,52286.354999999996,41523.93,29324.25,21360.105,16625.43,5.76,0.0
1789861801.3338704,14109.525,30090.51,52269.57,41509.799999999996,29267.37,21322.485,16631.55,13.68,0.0
1789861801.3338938,14066.369999999999,30166.245,52276.14,41511.104999999996,29267.145,21313.934999999998,16623.45,-9.045,0.0
1789861801.3347747,14063.984999999999,30219.57,52291.71,41519.385,29267.954999999998,21297.285,16609.725,-25.56,0.0
1789861801.3347952,14069.295,30166.695,52282.575,41508.63,29258.01,21279.195,16611.434999999998,-18.314999999999998,0.0
1789861801.3406029,14094.135,30133.89,52287.21,41507.369999999995,29265.075,21273.795,16605.18,-0.44999999999999996,0.0
1789861801.3406417,14102.055,30119.67,52276.95,41512.994999999995,29250.405,21287.34,16595.82,-2.025,0.0
1789861801.3554094,14119.65,30132.719999999998,52303.634999999995,41536.08,29256.885,21327.075,16598.52,11.879999999999999,0.0
1789861801.3554316,14138.279999999999,30125.835,52305.659999999996,41514.57,29211.885,21337.785,16613.37,24.21,0.0
1789861801.3554518,14101.019999999999,30141.09,52319.204999999994,41532.39,29293.335,21401.1,16622.595,4.859999999999999,0.0
1789861801.355461,14043.195,30161.925,52327.53,41559.03,29364.434999999998,21449.969999999998,16634.97,-31.005,0.0
1789861801.3554711,14085.18,30168.539999999997,52301.07,41508.09,29306.475,21407.535,16650.405,-7.0649999999999995,0.0
1789861801.3554797,14084.955,30122.46,52270.335,41490.135,29250.809999999998,21377.52,16648.335,-1.26,0.0
1789861801.3554895,14082.435,30099.42,52281.945,41528.52,29289.78,21396.015,16637.445,-6.435,0.0
1789861801.355498,14101.154999999999,30091.635,52307.1,41558.58,29348.504999999997,21399.885,16632.495,6.12,0.0
1789861801.3584485,14101.38,30089.204999999998,52291.17,41522.67,29306.385,21363.93,16639.785,10.844999999999999,0.0
1789861801.3584745,14105.205,30143.25,52277.445,41499.36,29298.465,21352.23,16635.105,11.565,0.0
1789861801.3623333,14100.435,30166.379999999997,52300.485,41528.79,29299.5,21336.434999999998,16618.05,-4.995,0.0
1789861801.3623655,14104.17,30165.885,52330.185,41581.71,29343.105,21357.495,16604.82,-7.425,0.0
1789861801.3656232,14136.93,30155.579999999998,52333.695,41590.395,29369.789999999997,21365.64,16609.95,19.169999999999998,0.0
1789861801.365657,14136.164999999999,30098.024999999998,52329.78,41552.46,29299.274999999998,21322.62,16613.505,25.2,0.0
1789861801.3732522,14143.095,30068.145,52316.46,41541.165,29284.335,21318.48,16617.285,34.785,0.0
1789861801.3732848,14155.605,30107.879999999997,52298.369999999995,41494.59,29272.815,21322.844999999998,16609.32,33.165,0.0
1789861801.3748524,14125.725,30165.84,52313.31,41508.27,29301.3,21352.635,16610.399999999998,6.345,0.0
1789861801.374886,14113.35,30184.155,52315.65,41539.005,29277.809999999998,21362.175,16638.885,5.3999999999999995,0.0
1789861801.3784907,14109.93,30151.574999999997,52302.869999999995,41535.72,29270.385,21367.305,16650.0,9.27,0.0
1789861801.378528,14121.72,30110.535,52301.52,41540.985,29290.32,21376.62,16650.135,22.994999999999997,0.0
1789861801.3848069,14115.33,30142.98,52296.93,41538.735,29286.899999999998,21369.149999999998,16644.329999999998,18.0,0.0
1789861801.3848553,14098.994999999999,30133.53,52293.555,41548.455,29288.024999999998,21363.93,16642.26,11.16,0.0
1789861801.3873715,14110.74,30122.055,52314.39,41554.89,29295.18,21369.42,16642.395,22.185,0.0
1789861801.3874092,14113.89,30140.504999999997,52306.56,41538.33,29280.105,21360.51,16638.975,17.91,0.0
1789861801.3936682,14107.769999999999,30154.815,52274.97,41513.174999999996,29278.62,21367.035,16641.45,10.35,0.0
1789861801.3937097,14103.855,30137.535,52276.77,41523.57,29312.774999999998,21388.59,16642.62,15.165,0.0
1789861801.3951504,14103.404999999999,30122.01,52286.534999999996,41552.46,29283.344999999998,21363.21,16638.57,16.335,0.0
1789861801.3951929,14093.55,30097.035,52275.42,41545.89,29263.23,21346.245,16631.46,7.47,0.0
1789861801.3985984,14095.08,30105.135,52297.604999999996,41549.67,29279.835,21359.925,16626.645,5.3549999999999995,0.0
1789861801.3986385,14114.925,30086.1,52305.03,41556.284999999996,29296.62,21377.925,16633.215,18.675,0.0
1789861801.4066613,14117.4,30060.225,52279.424999999996,41547.06,29288.745,21373.29,16638.57,19.08,0.0
1789861801.406708,14116.814999999999,30121.469999999998,52280.549999999996,41539.86,29278.98,21367.665,16631.55,18.27,0.0
1789861801.4067514,14129.324999999999,30148.785,52303.905,41560.92,29293.649999999998,21383.415,16629.48,23.535,0.0
1789861801.4067707,14143.365,30086.55,52295.04,41572.485,29298.96,21392.684999999998,16637.355,32.49,0.0
1789861801.413163,14121.855,30077.954999999998,52295.895,41569.38,29293.02,21389.13,16640.954999999998,23.4,0.0
1789861801.413201,14075.324999999999,30141.855,52355.159999999996,41581.71,29299.725,21395.88,16638.66,2.565,0.0
1789861801.4145453,14079.33,30154.995,52398.585,41582.205,29292.704999999998,21387.195,16632.27,0.63,0.0
1789861801.4145837,14106.779999999999,30153.42,52329.825,41548.049999999996,29275.559999999998,21374.28,16630.829999999998,15.705,0.0
1789861801.4232073,14133.195,30160.754999999997,52251.119999999995,41529.78,29271.059999999998,21373.469999999998,16635.149999999998,35.955,0.0
1789861801.4232416,14118.705,30134.52,52264.53,41535.81,29263.41,21364.829999999998,16632.63,26.415,0.0
1789861801.4232736,14109.255,30117.645,52257.78,41560.604999999996,29280.87,21377.925,16630.335,20.07,0.0
1789861801.423288,14105.16,30117.42,52261.604999999996,41551.2,29280.555,21383.505,16633.71,20.025,0.0
1789861801.4263864,14117.984999999999,30144.195,52306.56,41556.96,29276.504999999997,21387.6,16635.555,26.009999999999998,0.0
1789861801.4264133,14105.519999999999,30119.76,52292.88,41572.53,29286.18,21388.86,16634.43,17.82,0.0
1789861801.4306467,14130.314999999999,30125.969999999998,52305.299999999996,41601.104999999996,29321.37,21410.91,16626.375,26.595,0.0
1789861801.4307108,14151.914999999999,30130.155,52323.345,41596.56,29317.454999999998,21409.605,16630.829999999998,37.035,0.0
1789861801.4334478,14139.72,30089.25,52287.255,41536.17,29261.385,21375.135,16643.88,39.644999999999996,0.0
1789861801.4334629,14140.98,30101.579999999998,52292.295,41515.83,29234.07,21351.78,16630.829999999998,31.59,0.0
1789861801.4383864,14117.85,30082.995,52283.835,41519.835,29244.96,21360.96,16633.98,25.334999999999997,0.0
1789861801.438428,14121.585,30120.93,52300.215,41537.385,29252.07,21360.645,16627.23,22.95,0.0
1789861801.442458,14114.25,30151.71,52299.674999999996,41551.02,29263.5,21361.86,16619.309999999998,12.645,0.0
1789861801.4425013,14141.475,30191.535,52306.56,41562.045,29280.645,21370.184999999998,16619.579999999998,28.709999999999997,0.0
1789861801.446142,14153.31,30184.92,52316.82,41528.025,29249.055,21354.344999999998,16628.309999999998,38.61,0.0
1789861801.4461746,14135.894999999999,30149.055,52303.634999999995,41539.59,29255.265,21355.11,16625.25,31.86,0.0
1789861801.4505997,14120.775,30116.16,52303.86,41561.909999999996,29280.375,21374.01,16630.335,26.91,0.0
1789861801.4506295,14121.63,30115.44,52321.77,41571.72,29287.89,21378.059999999998,16631.235,26.685,0.0
1789861801.4554133,14137.019999999999,30132.315,52300.71,41560.47,29285.73,21370.635,16631.954999999998,34.65,0.0
1789861801.4554384,14132.16,30121.829999999998,52268.939999999995,41536.979999999996,29256.075,21337.739999999998,16625.204999999998,32.445,0.0
1789861801.4586756,14133.96,30129.3,52294.229999999996,41561.1,29266.335,21345.165,16613.37,25.919999999999998,0.0
1789861801.4586976,14130.269999999999,30131.73,52294.68,41555.475,29270.969999999998,21352.23,16619.579999999998,22.86,0.0
1789861801.4621782,14145.21,30148.245,52317.72,41556.825,29270.385,21358.755,16627.905,35.91,0.0
1789861801.46219,14138.369999999999,30139.065,52326.225,41580.765,29289.015,21370.05,16629.795,32.76,0.0
1789861801.4664643,14148.63,30124.8,52316.189999999995,41571.99,29282.625,21361.274999999998,16629.03,40.41,0.0
1789861801.4664972,14140.529999999999,30120.254999999997,52312.229999999996,41564.07,29276.235,21355.695,16624.305,35.595,0.0
1789861801.4734244,14129.82,30136.905,52314.975,41564.475,29280.914999999997,21363.795,16630.02,30.105,0.0
1789861801.47344,14120.01,30137.219999999998,52303.185,41550.705,29267.145,21347.774999999998,16624.755,24.119999999999997,0.0
1789861801.4753597,14125.904999999999,30127.41,52294.95,41548.635,29260.395,21335.625,16619.76,29.97,0.0
1789861801.4753675,14132.609999999999,30129.12,52305.479999999996,41563.619999999995,29273.039999999997,21344.579999999998,16622.1,37.934999999999995,0.0
1789861801.4818828,14136.164999999999,30128.489999999998,52300.034999999996,41554.799999999996,29269.89,21345.434999999998,16628.489999999998,38.97,0.0
1789861801.4819016,14142.734999999999,30130.379999999997,52304.67,41562.54,29277.719999999998,21347.684999999998,16624.934999999998,34.785,0.0
1789861801.48192,14165.1,30134.25,52321.095,41590.485,29301.75,21364.785,16627.184999999998,46.53,0.0
1789861801.4819276,14162.22,30128.355,52333.335,41597.46,29306.204999999998,21368.43,16632.495,44.775,0.0
1789861801.4888415,14161.635,30143.07,52325.954999999994,41589.765,29306.745,21369.915,16644.645,55.26,0.0
1789861801.4888582,14153.67,30165.12,52307.865,41576.31,29297.43,21351.555,16634.88,40.05,0.0
1789861801.4901824,14175.359999999999,30183.48,52315.064999999995,41586.345,29307.285,21354.344999999998,16634.295,50.04,0.0
1789861801.4901953,14177.07,30175.965,52313.985,41582.295,29305.035,21347.954999999998,16633.485,53.55,0.0
1789861801.4960165,14155.695,30142.62,52302.509999999995,41588.189999999995,29310.48,21343.68,16630.649999999998,48.78,0.0
1789861801.4960372,14137.019999999999,30128.085,52304.174999999996,41569.965,29289.6,21339.855,16631.1,40.545,0.0
1789861801.4987993,14139.945,30138.164999999997,52306.11,41578.515,29287.664999999997,21346.245,16630.02,37.26,0.0
1789861801.498819,14119.289999999999,30123.989999999998,52299.18,41594.13,29314.305,21348.855,16627.545,25.244999999999997,0.0
1789861801.5055327,14120.234999999999,30128.579999999998,52317.405,41612.445,29326.815,21360.87,16631.28,31.14,0.0
1789861801.5055473,14131.935,30122.235,52308.674999999996,41598.854999999996,29298.239999999998,21360.285,16639.02,37.71,0.0
1789861801.505562,14148.675,30114.27,52303.005,41593.185,29306.024999999998,21379.05,16645.095,56.025,0.0
1789861801.505568,14133.015,30111.21,52307.685,41593.68,29328.254999999997,21372.84,16638.434999999998,47.745,0.0
1789861801.510507,14133.51,30123.135,52311.329999999994,41571.72,29300.355,21345.885,16631.19,37.71,0.0
1789861801.5105305,14142.644999999999,30123.585,52316.009999999995,41549.805,29276.414999999997,21328.065,16627.454999999998,42.885,0.0
1789861801.5147128,14144.039999999999,30141.899999999998,52324.92,41559.93,29291.85,21332.969999999998,16624.44,45.54,0.0
1789861801.51474,14133.6,30134.745,52314.93,41573.744999999995,29313.675,21338.73,16623.18,37.62,0.0
1789861801.5199783,14137.605,30131.145,52323.659999999996,41573.475,29319.164999999997,21349.079999999998,16631.235,46.845,0.0
1789861801.520009,14136.39,30130.649999999998,52321.005,41559.345,29308.5,21337.11,16626.825,43.019999999999996,0.0
1789861801.5265968,14120.82,30111.21,52299.585,41551.695,29308.41,21332.745,16624.53,32.445,0.0
1789861801.526613,14126.58,30115.079999999998,52305.435,41568.885,29330.774999999998,21353.355,16624.934999999998,37.394999999999996,0.0
1789861801.526631,14129.055,30107.565,52302.06,41575.545,29338.605,21362.085,16634.79,42.75,0.0
1789861801.5266373,14117.13,30106.485,52307.82,41570.909999999996,29332.44,21358.575,16633.71,31.544999999999998,0.0
1789861801.5305479,14123.564999999999,30124.98,52324.2,41590.53,29349.989999999998,21379.094999999998,16636.32,33.66,0.0
1789861801.5305662,14124.96,30126.824999999997,52321.365,41589.135,29348.91,21380.985,16635.87,32.67,0.0
1789861801.5328074,14142.734999999999,30128.985,52309.35,41578.02,29338.92,21369.42,16632.27,47.79,0.0
1789861801.532824,14149.845,30131.055,52299.36,41556.555,29317.23,21347.505,16624.035,50.805,0.0
1789861801.5382318,14150.43,30134.61,52300.619999999995,41553.585,29315.16,21347.1,16621.02,49.32,0.0
1789861801.5382469,14140.484999999999,30126.6,52297.38,41554.034999999996,29315.07,21349.395,16621.829999999998,42.345,0.0
1789861801.542282,14149.035,30134.34,52305.615,41561.235,29322.675,21358.17,16624.485,48.96,0.0
1789861801.5422971,14147.279999999999,30135.78,52301.159999999996,41546.97,29314.17,21351.78,16624.934999999998,45.945,0.0
1789861801.5453224,14154.164999999999,30145.454999999998,52311.735,41558.445,29326.23,21364.605,16625.655,53.37,0.0
1789861801.5453289,14141.88,30139.425,52308.405,41557.229999999996,29323.485,21362.309999999998,16620.48,42.57,0.0
1789861801.5549276,14150.295,30149.145,52317.585,41568.795,29337.12,21378.285,16623.63,50.129999999999995,0.0
1789861801.554943,14153.625,30152.879999999997,52321.994999999995,41570.955,29338.335,21380.985,16626.195,53.46,0.0
1789861801.5549583,14154.975,30157.155,52324.56,41573.295,29341.079999999998,21383.235,16627.815,54.225,0.0
1789861801.5549645,14151.555,30154.725,52322.939999999995,41571.27,29338.875,21382.695,16625.655,53.324999999999996,0.0
1789861801.5620232,14145.93,30148.02,52318.125,41566.14,29334.735,21380.355,16617.915,46.934999999999995,0.0
1789861801.5620408,14145.255,30150.719999999998,52322.625,41574.51,29345.039999999997,21390.66,16605.36,42.93,0.0
1789861801.5633373,14154.975,30161.745,52333.335,41576.31,29345.445,21389.085,16606.575,49.769999999999996,0.0
1789861801.563351,14168.16,30178.079999999998,52344.99,41580.314999999995,29349.045,21390.3,16612.92,61.335,0.0
1789861801.567173,14149.17,30164.67,52335.945,41588.955,29363.76,21404.25,16631.28,53.01,0.0
1789861801.5671957,14137.47,30149.235,52316.549999999996,41574.78,29354.085,21395.07,16637.579999999998,44.955,0.0
1789861801.5783706,14150.385,30165.704999999998,52336.305,41582.61,29362.094999999998,21403.125,16639.829999999998,54.269999999999996,0.0
1789861801.5783982,14149.71,30166.335,52338.329999999994,41582.43,29360.879999999997,21396.285,16632.225,56.07,0.0
1789861801.5784247,14159.07,30183.074999999997,52352.64,41589.27,29366.684999999998,21403.035,16625.16,61.47,0.0
1789861801.5784378,14158.619999999999,30188.204999999998,52358.579999999994,41597.64,29375.73,21408.75,16611.21,58.364999999999995,0.0
1789861801.578452,14148.945,30175.739999999998,52356.329999999994,41607.405,29383.559999999998,21415.77,16612.649999999998,55.08,0.0
1789861801.5784645,14141.789999999999,30173.535,52344.72,41592.645,29374.515,21411.495,16637.985,49.725,0.0
1789861801.5870152,14142.644999999999,30167.145,52340.85,41594.4,29376.18,21414.329999999998,16657.38,55.71,0.0
1789861801.5870483,14148.314999999999,30173.76,52347.96,41576.58,29353.68,21392.37,16642.035,53.37,0.0
1789861801.5870783,14168.16,30198.69,52360.56,41567.534999999996,29348.684999999998,21394.395,16642.62,66.91499999999999,0.0
1789861801.5870926,14159.789999999999,30186.585,52352.595,41565.24,29349.989999999998,21393.495,16647.434999999998,61.695,0.0
1789861801.5903938,14155.515,30180.105,52347.78,41564.835,29345.715,21395.43,16647.975,54.855,0.0
1789861801.590421,14161.275,30195.045,52354.034999999996,41573.07,29348.504999999997,21404.835,16647.434999999998,55.305,0.0
1789861801.5940113,14163.93,30203.46,52359.704999999994,41580.854999999996,29356.559999999998,21411.405,16645.905,59.535,0.0
1789861801.5940323,14161.994999999999,30199.635,52364.43,41591.924999999996,29368.035,21424.815,16639.245,59.129999999999995,0.0
1789861801.5977137,14157.9,30186.539999999997,52351.155,41583.33,29365.965,21422.295,16639.785,63.18,0.0
1789861801.597739,14173.47,30199.32,52356.42,41573.43,29368.71,21417.885,16637.22,74.655,0.0
1789861801.6021364,14166.72,30196.98,52357.229999999996,41580.945,29374.785,21421.079999999998,16635.42,71.73,0.0
1789861801.6021693,14149.529999999999,30186.27,52344.585,41587.604999999996,29386.26,21428.954999999998,16632.585,58.004999999999995,0.0
1789861801.6054397,14170.005,30200.67,52360.784999999996,41573.295,29359.485,21417.21,16635.329999999998,73.215,0.0
1789861801.605456,14162.355,30179.295,52339.994999999995,41567.22,29352.96,21404.295,16627.68,63.809999999999995,0.0
1789861801.6128807,14174.685,30194.324999999997,52349.13,41572.845,29361.555,21409.92,16631.055,70.28999999999999,0.0
1789861801.612898,14171.31,30189.914999999997,52355.835,41611.77,29403.0,21440.565,16634.204999999998,73.66499999999999,0.0
1789861801.6136134,14171.085,30177.945,52354.305,41616.045,29405.25,21442.86,16641.495,75.86999999999999,0.0
1789861801.613628,14195.654999999999,30195.405,52353.72,41554.979999999996,29342.16,21401.774999999998,16640.505,83.88,0.0
1789861801.6181407,14196.555,30204.36,52365.509999999995,41582.655,29368.844999999998,21415.094999999998,16636.905,85.86,0.0
1789861801.6181593,14179.23,30225.824999999997,52378.875,41593.814999999995,29378.969999999998,21412.215,16636.23,77.895,0.0
1789861801.6213677,14175.359999999999,30218.309999999998,52367.04,41579.145,29362.635,21400.11,16639.829999999998,77.625,0.0
1789861801.62139,14172.57,30204.045,52357.32,41580.0,29359.485,21401.91,16639.515,73.845,0.0
1789861801.633176,14182.244999999999,30212.414999999997,52368.345,41604.075,29387.789999999997,21427.245,16642.215,80.00999999999999,0.0
1789861801.6332088,14170.59,30199.454999999998,52358.445,41603.13,29397.555,21432.42,16638.84,71.41499999999999,0.0
1789861801.6332252,14177.16,30207.42,52371.494999999995,41603.04,29399.309999999998,21444.12,16645.32,81.09,0.0
1789861801.6332333,14164.695,30199.635,52366.634999999995,41603.445,29399.94,21438.135,16645.68,75.105,0.0
1789861801.6345613,14172.435,30204.09,52373.384999999995,41621.58,29411.145,21439.89,16644.329999999998,80.73,0.0
1789861801.6345775,14181.119999999999,30216.87,52374.015,41592.6,29376.945,21415.635,16641.18,80.00999999999999,0.0
1789861801.637426,14190.66,30221.91,52374.06,41603.13,29385.135,21426.12,16641.18,89.36999999999999,0.0
1789861801.6374469,14190.885,30214.485,52367.445,41615.415,29398.725,21429.495,16640.91,89.955,0.0
1789861801.6478732,14178.6,30203.324999999997,52361.28,41618.43,29411.46,21425.445,16643.52,87.66,0.0
1789861801.647904,14175.359999999999,30192.93,52344.045,41601.15,29407.23,21410.28,16636.905,81.675,0.0
1789861801.647932,14204.519999999999,30234.329999999998,52372.079999999994,41592.735,29383.11,21401.46,16636.86,97.56,0.0
1789861801.6479473,14190.345,30225.555,52367.445,41590.979999999996,29359.98,21394.035,16634.655,88.785,0.0
1789861801.6503828,14190.21,30222.629999999997,52362.36,41589.99,29372.219999999998,21410.505,16626.555,89.685,0.0
1789861801.65041,14179.904999999999,30214.62,52354.259999999995,41589.72,29394.719999999998,21409.29,16606.485,79.38,0.0
1789861801.6542947,14185.8,30221.82,52361.909999999996,41604.03,29411.145,21409.38,16575.57,84.06,0.0
1789861801.6543212,14202.09,30243.51,52388.729999999996,41623.244999999995,29413.395,21431.16,16559.82,94.95,0.0
1789861801.6626496,14207.67,30256.379999999997,52404.03,41630.58,29399.805,21441.015,16568.864999999998,96.66,0.0
1789861801.6626687,14201.91,30254.175,52399.485,41630.22,29398.905,21439.17,16614.945,91.97999999999999,0.0
1789861801.6645362,14191.109999999999,30245.219999999998,52390.034999999996,41628.06,29403.765,21441.6,16662.78,88.64999999999999,0.0
1789861801.6645565,14190.255,30239.28,52376.895,41618.61,29411.91,21429.719999999998,16693.785,95.80499999999999,0.0
1789861801.6652331,14196.869999999999,30240.449999999997,52368.659999999996,41609.115,29402.594999999998,21414.105,16686.225,103.545,0.0
1789861801.6652536,14178.689999999999,30221.55,52346.564999999995,41589.494999999995,29382.524999999998,21392.37,16684.739999999998,91.53,0.0
1789861801.6701524,14181.975,30219.795,52344.27,41594.805,29381.535,21389.985,16664.67,90.36,0.0
1789861801.670178,14195.654999999999,30230.01,52356.78,41597.505,29384.145,21398.67,16661.835,100.89,0.0
1789861801.6744812,14200.83,30234.824999999997,52364.835,41607.674999999996,29389.14,21406.274999999998,16659.585,102.285,0.0
1789861801.6745057,14190.84,30231.315,52363.619999999995,41621.534999999996,29397.96,21411.045,16655.805,95.39999999999999,0.0
1789861801.6781847,14186.475,30225.914999999997,52347.284999999996,41598.09,29378.204999999998,21394.035,16653.239999999998,95.31,0.0
1789861801.6782043,14196.689999999999,30237.344999999998,52366.59,41615.595,29391.524999999998,21408.84,16648.649999999998,98.505,0.0
1789861801.6822236,14198.535,30241.574999999997,52373.295,41620.635,29395.575,21410.64,16648.92,97.785,0.0
1789861801.68225,14193.63,30234.149999999998,52363.395,41610.195,29387.024999999998,21399.03,16643.97,93.78,0.0
1789861801.6861987,14198.4,30240.855,52379.009999999995,41630.31,29407.184999999998,21414.465,16641.495,99.315,0.0
1789861801.6862276,14195.25,30231.36,52375.77,41635.26,29409.885,21411.045,16640.864999999998,96.75,0.0
1789861801.6910777,14190.93,30226.14,52366.68,41621.085,29400.66,21403.35,16643.204999999998,90.945,0.0
1789861801.6911075,14204.295,30239.19,52371.0,41608.53,29396.61,21405.195,16647.795,103.5,0.0
1789861801.6935089,14198.445,30216.735,52350.345,41595.93,29387.7,21398.445,16648.785,102.91499999999999,0.0
1789861801.6935291,14205.644999999999,30236.489999999998,52379.415,41620.32,29405.655,21413.969999999998,16637.309999999998,96.75,0.0
1789861801.7035544,14210.055,30223.079999999998,52375.545,41642.82,29428.829999999998,21427.2,16639.605,94.63499999999999,0.0
1789861801.70358,14222.519999999999,30227.085,52377.21,41638.455,29429.46,21426.704999999998,16644.825,108.13499999999999,0.0
1789861801.7036045,14184.63,30229.605,52395.255,41624.955,29413.17,21417.704999999998,16644.195,89.41499999999999,0.0
1789861801.703616,14180.13,30239.954999999998,52388.28,41616.314999999995,29409.344999999998,21410.145,16645.545,96.47999999999999,0.0
1789861801.7062545,14207.76,30247.559999999998,52385.22,41612.445,29405.295,21406.77,16641.945,111.195,0.0
1789861801.7062767,14204.115,30230.01,52366.545,41600.475,29390.805,21392.37,16633.26,107.46,0.0
1789861801.7138145,14193.045,30214.079999999998,52351.155,41603.13,29394.989999999998,21392.91,16624.71,92.925,0.0
1789861801.7138333,14204.654999999999,30227.67,52360.29,41597.955,29395.53,21402.0,16628.985,102.285,0.0
1789861801.713852,14196.375,30218.67,52352.685,41585.49,29382.975,21393.405,16628.805,96.435,0.0
1789861801.7138603,14197.005,30221.1,52360.244999999995,41596.695,29392.875,21398.895,16624.035,93.69,0.0
1789861801.7177424,14199.345,30217.905,52356.195,41595.03,29392.289999999997,21400.829999999998,16621.02,95.22,0.0
1789861801.7177627,14211.0,30226.905,52362.765,41598.585,29394.945,21407.04,16623.675,104.22,0.0
1789861801.7226543,14210.369999999999,30225.6,52365.869999999995,41600.115,29397.914999999997,21409.425,16627.68,104.895,0.0
1789861801.72267,14206.635,30217.725,52362.134999999995,41601.735,29401.559999999998,21414.51,16631.145,105.615,0.0
1789861801.7254171,14205.6,30212.64,52348.77,41595.119999999995,29395.8,21408.48,16629.93,104.625,0.0
1789861801.7254343,14187.06,30198.015,52340.985,41596.11,29395.934999999998,21402.18,16621.29,86.445,0.0
1789861801.730482,14187.42,30197.024999999998,52344.45,41594.534999999996,29400.57,21407.175,16619.76,86.13,0.0
1789861801.7305036,14185.935,30200.399999999998,52350.39,41600.07,29406.149999999998,21413.16,16614.36,83.25,0.0
1789861801.7336192,14206.769999999999,30220.92,52371.854999999996,41605.92,29411.73,21424.815,16613.325,98.505,0.0
1789861801.733647,14218.47,30234.735,52378.784999999996,41601.6,29408.535,21423.51,16597.62,104.58,0.0
1789861801.7369092,14211.045,30224.204999999998,52369.155,41600.295,29405.655,21416.985,16597.845,98.235,0.0
1789861801.736938,14210.91,30222.809999999998,52366.725,41599.305,29405.295,21419.82,16626.96,101.565,0.0
1789861801.7423368,14200.65,30211.155,52351.02,41585.445,29391.03,21407.309999999998,16621.155,92.07,0.0
1789861801.7423673,14209.785,30221.73,52364.025,41594.22,29399.039999999997,21413.835,16593.075,96.3,0.0
1789861801.7453997,14228.01,30240.629999999997,52384.86,41615.865,29421.585,21436.785,16580.52,109.30499999999999,0.0
1789861801.745433,14221.755,30236.67,52379.369999999995,41606.28,29414.16,21435.12,16582.454999999998,102.735,0.0
1789861801.7513845,14200.695,30218.895,52361.595,41597.145,29405.204999999998,21427.02,16609.95,88.56,0.0
1789861801.7514155,14191.199999999999,30204.449999999997,52349.085,41586.795,29396.565,21420.675,16658.37,89.82,0.0
1789861801.7534337,14202.945,30209.985,52353.585,41592.555,29399.76,21422.43,16647.48,100.395,0.0
1789861801.7534492,14203.26,30207.195,52346.79,41588.28,29396.655,21421.934999999998,16629.704999999998,98.82,0.0
1789861801.7581651,14191.515,30209.805,52348.32,41575.86,29386.35,21415.094999999998,16626.51,89.77499999999999,0.0
1789861801.758191,14197.365,30210.164999999997,52344.854999999996,41594.985,29408.76,21434.535,16620.75,91.485,0.0
1789861801.764013,14188.814999999999,30195.585,52330.86,41584.635,29398.635,21427.11,16622.954999999998,89.595,0.0
1789861801.764042,14189.445,30207.059999999998,52355.835,41603.625,29409.885,21433.41,16619.985,88.335,0.0
1789861801.7660637,14218.064999999999,30226.274999999998,52359.435,41586.119999999995,29404.125,21441.51,16633.395,110.61,0.0
1789861801.7660935,14212.935,30228.795,52367.759999999995,41579.865,29386.305,21424.41,16620.345,97.56,0.0
1789861801.771526,14219.46,30244.77,52392.375,41599.89,29397.059999999998,21433.41,16605.27,102.91499999999999,0.0
1789861801.7715476,14217.345,30241.26,52387.335,41601.869999999995,29405.16,21440.25,16596.765,103.22999999999999,0.0
1789861801.773994,14200.695,30227.219999999998,52372.079999999994,41593.185,29397.42,21427.38,16598.295,91.25999999999999,0.0
1789861801.7740164,14201.955,30219.3,52362.945,41578.965,29387.34,21421.934999999998,16622.684999999998,100.61999999999999,0.0
1789861801.7786143,14206.68,30217.5,52361.729999999996,41571.0,29380.14,21417.93,16621.605,102.55499999999999,0.0
1789861801.778632,14202.945,30215.385,52363.034999999996,41579.955,29387.7,21422.88,16612.155,96.47999999999999,0.0
1789861801.7815328,14196.734999999999,30209.309999999998,52357.5,41583.735,29390.67,21421.8,16605.36,88.785,0.0
1789861801.781544,14207.67,30221.324999999997,52370.64,41598.36,29406.51,21434.175,16605.09,96.88499999999999,0.0
1789861801.7854867,14216.039999999999,30227.67,52368.659999999996,41598.81,29411.82,21439.44,16609.454999999998,104.31,0.0
1789861801.7855024,14197.365,30225.42,52379.909999999996,41621.31,29424.825,21442.86,16600.815,82.17,0.0
1789861801.7938423,14221.305,30216.285,52357.229999999996,41581.439999999995,29396.969999999998,21430.485,16611.03,99.585,0.0
1789861801.7938704,14236.92,30227.445,52355.115,41569.11,29390.625,21428.055,16614.0,103.005,0.0
1789861801.7956667,14232.644999999999,30234.645,52350.479999999996,41586.479999999996,29397.914999999997,21424.41,16607.204999999998,92.88,0.0
1789861801.795683,14193.63,30224.024999999998,52374.509999999995,41588.64,29397.78,21432.645,16608.42,88.11,0.0
1789861801.7974596,14188.455,30224.16,52383.78,41586.39,29389.094999999998,21425.13,16598.79,95.35499999999999,0.0
1789861801.7974756,14198.49,30209.175,52345.259999999995,41560.02,29375.46,21401.01,16583.22,97.875,0.0
1789861801.8015676,14190.21,30206.25,52341.075,41554.35,29378.385,21390.84,16592.04,92.115,0.0
1789861801.8016005,14194.08,30210.524999999998,52351.47,41565.195,29382.164999999997,21399.03,16600.995,95.31,0.0
1789861801.8154016,14212.664999999999,30215.835,52361.369999999995,41574.33,29378.745,21419.91,16608.105,111.14999999999999,0.0
1789861801.8154204,14211.045,30211.739999999998,52360.47,41570.01,29386.575,21431.835,16602.93,106.47,0.0
1789861801.8154395,14208.525,30214.53,52363.305,41576.985,29406.285,21441.87,16602.3,102.10499999999999,0.0
1789861801.8154483,14205.824999999999,30211.379999999997,52361.82,41577.255,29406.059999999998,21437.82,16606.26,101.16,0.0
1789861801.8154593,14193.81,30204.135,52360.65,41574.33,29402.774999999998,21433.68,16606.485,91.8,0.0
1789861801.8154676,14194.394999999999,30212.55,52376.534999999996,41598.854999999996,29428.065,21457.934999999998,16610.715,93.10499999999999,0.0
1789861801.8178148,14188.23,30212.864999999998,52377.57,41620.59,29450.879999999997,21471.434999999998,16610.13,86.265,0.0
1789861801.817835,14183.955,30205.485,52372.259999999995,41615.369999999995,29438.055,21457.89,16610.67,81.13499999999999,0.0
1789861801.8229582,14199.795,30213.36,52362.045,41578.02,29402.73,21431.475,16610.535,93.50999999999999,0.0
1789861801.8229754,14215.365,30218.355,52354.935,41550.885,29371.905,21399.57,16601.309999999998,104.85,0.0
1789861801.824958,14233.365,30240.225,52375.68,41555.61,29366.235,21390.344999999998,16592.805,112.905,0.0
1789861801.8249676,14224.185,30233.024999999998,52374.735,41559.75,29371.905,21396.239999999998,16595.01,106.875,0.0
1789861801.8293772,14207.67,30219.254999999997,52367.759999999995,41563.08,29375.954999999998,21396.329999999998,16592.985,93.55499999999999,0.0
1789861801.8293908,14203.71,30217.995,52364.835,41558.85,29374.965,21394.89,16588.575,90.81,0.0
1789861801.8360384,14203.71,30220.11,52364.61,41560.92,29376.585,21394.8,16587.36,91.845,0.0
1789861801.836058,14210.955,30228.21,52373.835,41568.119999999995,29384.504999999997,21401.864999999998,16592.445,100.755,0.0
1789861801.838304,14200.47,30213.539999999997,52360.02,41560.65,29378.25,21394.934999999998,16593.12,94.095,0.0
1789861801.838323,14195.654999999999,30209.625,52354.89,41571.045,29386.53,21395.385,16585.02,88.83,0.0
1789861801.8420289,14195.205,30211.425,52359.84,41587.695,29399.085,21399.795,16572.87,86.80499999999999,0.0
1789861801.8420503,14205.96,30219.344999999998,52362.99,41585.49,29407.41,21415.995,16572.915,100.17,0.0
1789861801.8481848,14214.24,30235.815,52373.43,41569.02,29397.87,21414.825,16581.105,102.50999999999999,0.0
1789861801.8482049,14210.189999999999,30231.855,52378.875,41584.185,29403.629999999997,21411.809999999998,16589.835,98.28,0.0
1789861801.8540428,14213.564999999999,30242.789999999997,52391.52,41586.255,29403.585,21412.125,16584.03,97.38,0.0
1789861801.854067,14214.105,30240.315,52389.81,41591.025,29408.76,21412.98,16582.095,97.92,0.0
1789861801.8554451,14211.045,30234.239999999998,52385.67,41581.71,29401.785,21407.94,16596.495,101.205,0.0
1789861801.8554704,14207.175,30221.145,52369.65,41569.424999999996,29387.879999999997,21395.114999999998,16613.82,101.565,0.0
1789861801.8583956,14195.07,30219.704999999998,52368.615,41570.909999999996,29388.735,21390.03,16597.17,86.535,0.0
1789861801.8584137,14198.085,30221.55,52367.265,41567.085,29388.6,21390.255,16593.21,86.22,0.0
1789861801.8628144,14198.22,30212.28,52360.335,41568.21,29392.785,21395.88,16593.75,90.945,0.0
1789861801.8628385,14209.109999999999,30224.61,52370.685,41580.045,29406.465,21407.895,16595.595,100.08,0.0
1789861801.8674848,14213.519999999999,30241.574999999997,52389.134999999995,41591.88,29416.41,21414.735,16592.309999999998,104.13,0.0
1789861801.8675132,14213.654999999999,30237.344999999998,52390.305,41598.0,29424.105,21421.844999999998,16584.66,104.175,0.0
1789861801.8708148,14208.48,30231.719999999998,52388.1,41600.025,29429.504999999997,21426.975,16589.43,100.97999999999999,0.0
1789861801.8708422,14198.805,30220.92,52377.299999999996,41589.63,29421.719999999998,21420.719999999998,16604.37,93.33,0.0
1789861801.8754916,14206.859999999999,30223.98,52378.244999999995,41591.385,29426.579999999998,21426.48,16618.905,103.455,0.0
1789861801.8755133,14217.435,30228.12,52378.244999999995,41591.159999999996,29424.105,21418.11,16607.204999999998,107.46,0.0
1789861801.8802688,14225.13,30236.445,52378.47,41575.994999999995,29408.805,21400.875,16595.82,105.57,0.0
1789861801.8802972,14233.23,30241.44,52380.09,41571.63,29404.8,21398.265,16590.239999999998,113.35499999999999,0.0
1789861801.8847072,14228.46,30233.16,52374.465,41580.81,29412.809999999998,21399.66,16584.975,109.125,0.0
1789861801.8847332,14213.205,30217.23,52365.96,41577.615,29413.305,21400.335,16586.91,101.74499999999999,0.0
1789861801.885179,14226.21,30230.864999999998,52371.27,41572.799999999996,29414.114999999998,21407.309999999998,16594.335,113.085,0.0
1789861801.8852017,14216.939999999999,30225.6,52368.704999999994,41566.455,29403.719999999998,21396.555,16591.5,103.63499999999999,0.0
1789861801.8939664,14211.72,30219.344999999998,52364.655,41567.985,29404.71,21397.32,16589.204999999998,100.935,0.0
1789861801.893982,14213.609999999999,30218.67,52361.009999999995,41566.365,29404.305,21399.255,16588.845,101.42999999999999,0.0
1789861801.894003,14220.945,30220.695,52359.165,41565.645,29404.575,21399.66,16587.945,103.32,0.0
1789861801.8940144,14234.445,30228.66,52364.61,41576.715,29415.825,21408.795,16588.755,113.58,0.0
1789861801.8982625,14232.105,30226.454999999998,52366.454999999994,41585.715,29423.925,21415.184999999998,16587.899999999998,114.615,0.0
1789861801.8982885,14213.295,30217.004999999997,52365.689999999995,41572.08,29415.825,21412.98,16589.835,109.485,0.0
1789861801.9023173,14196.15,30203.37,52357.185,41562.945,29407.454999999998,21403.44,16584.75,95.445,0.0
1789861801.9023395,14207.175,30212.91,52361.549999999996,41564.835,29409.075,21406.005,16583.355,99.045,0.0
1789861801.910626,14222.43,30232.395,52372.619999999995,41571.945,29416.815,21416.895,16591.095,112.185,0.0
1789861801.9106493,14208.93,30216.6,52355.744999999995,41562.27,29407.905,21406.68,16587.585,102.86999999999999,0.0
1789861801.9106731,14208.48,30214.44,52354.034999999996,41563.979999999996,29410.829999999998,21408.93,16585.245,101.38499999999999,0.0
1789861801.910685,14219.1,30225.239999999998,52367.625,41571.405,29418.03,21418.559999999998,16587.27,108.63,0.0
1789861801.9146075,14215.949999999999,30222.719999999998,52368.884999999995,41560.11,29406.914999999997,21413.07,16586.055,104.31,0.0
1789861801.914624,14222.609999999999,30229.11,52376.759999999995,41573.295,29421.629999999997,21423.87,16584.12,109.30499999999999,0.0
1789861801.918748,14220.72,30226.41,52369.695,41570.595,29420.594999999998,21420.63,16585.92,108.0,0.0
1789861801.9187667,14212.8,30214.53,52358.985,41565.78,29415.51,21414.645,16586.64,101.25,0.0
1789861801.92214,14219.369999999999,30219.795,52364.744999999995,41571.854999999996,29424.825,21424.545,16588.305,110.38499999999999,0.0
1789861801.9221592,14222.295,30221.55,52362.585,41568.345,29424.239999999998,21424.094999999998,16589.295,113.22,0.0
1789861801.9254184,14221.394999999999,30219.21,52357.634999999995,41563.845,29420.37,21419.82,16587.765,111.645,0.0
1789861801.9254303,14213.07,30210.57,52355.295,41576.13,29430.495,21420.809999999998,16580.43,101.97,0.0
1789861801.930323,14205.644999999999,30201.48,52351.2,41588.189999999995,29439.495,21426.434999999998,16581.69,95.085,0.0
1789861801.9303412,14217.39,30216.735,52362.09,41573.88,29431.934999999998,21428.37,16584.66,103.815,0.0
1789861801.9336057,14216.805,30217.23,52363.979999999996,41544.72,29405.969999999998,21409.965,16582.59,98.685,0.0
1789861801.933632,14205.195,30205.079999999998,52360.244999999995,41551.424999999996,29414.114999999998,21413.79,16578.809999999998,94.455,0.0
1789861801.938258,14193.225,30202.155,52362.134999999995,41567.625,29429.91,21423.87,16579.89,93.735,0.0
1789861801.9382849,14182.199999999999,30191.895,52363.215,41606.595,29468.655,21448.485,16583.94,94.095,0.0
1789861801.9422545,14203.08,30210.704999999998,52373.924999999996,41598.585,29466.27,21452.579999999998,16589.655,106.2,0.0
1789861801.942289,14220.945,30223.26,52372.619999999995,41564.205,29431.485,21437.055,16597.17,117.27,0.0
1789861801.9471574,14236.154999999999,30236.219999999998,52376.445,41563.619999999995,29433.735,21436.29,16591.184999999998,121.545,0.0
1789861801.9471798,14239.529999999999,30242.52,52375.365,41564.835,29430.045,21423.239999999998,16571.925,109.17,0.0
1789861801.9500864,14236.965,30239.91,52370.729999999996,41554.845,29420.01,21411.27,16556.895,91.08,0.0
1789861801.9501176,14240.07,30241.215,52380.765,41567.49,29434.454999999998,21424.454999999998,16554.69,94.59,0.0
1789861801.954151,14231.43,30226.32,52370.685,41567.895,29438.235,21426.66,16557.75,103.905,0.0
1789861801.9541757,14221.484999999999,30214.844999999998,52355.204999999994,41551.604999999996,29422.664999999997,21415.14,16571.295,106.695,0.0
1789861801.958506,14209.965,30200.715,52339.095,41538.555,29409.93,21401.055,16577.28,99.315,0.0
1789861801.9585257,14212.8,30199.635,52335.18,41537.205,29411.46,21403.26,16572.96,99.72,0.0
1789861801.9626763,14217.029999999999,30203.82,52338.465,41540.49,29414.789999999997,21404.61,16570.035,101.565,0.0
1789861801.962705,14231.699999999999,30220.605,52355.97,41549.174999999996,29427.03,21417.12,16571.204999999998,112.41,0.0
1789861801.966396,14235.48,30227.489999999998,52364.159999999996,41558.985,29434.77,21423.059999999998,16573.545,115.83,0.0
1789861801.9664247,14229.585,30220.605,52357.77,41557.229999999996,29434.77,21422.835,16569.855,112.185,0.0
1789861801.9703076,14228.01,30220.245,52357.5,41558.31,29433.87,21421.53,16565.985,108.49499999999999,0.0
1789861801.9703326,14219.91,30208.905,52348.229999999996,41548.59,29424.914999999997,21415.995,16568.954999999998,104.67,0.0
1789861801.9742353,14219.055,30210.074999999997,52352.954999999994,41553.0,29430.899999999998,21426.704999999998,16572.51,105.435,0.0
1789861801.9742615,14229.045,30220.065,52362.405,41561.369999999995,29438.235,21435.255,16578.45,113.895,0.0
1789861801.9784553,14220.585,30214.305,52353.765,41551.965,29427.48,21423.6,16575.03,106.24499999999999,0.0
1789861801.978482,14216.175,30213.809999999998,52351.02,41550.93,29424.87,21422.385,16566.93,101.835,0.0
1789861801.9839697,14215.41,30213.855,52352.909999999996,41554.034999999996,29424.42,21420.675,16565.085,100.485,0.0
1789861801.9839897,14218.154999999999,30218.039999999997,52358.265,41559.119999999995,29430.899999999998,21425.85,16566.03,104.13,0.0
1789861801.985463,14225.13,30226.094999999998,52366.454999999994,41568.119999999995,29441.52,21440.88,16570.845,113.22,0.0
1789861801.9854896,14223.869999999999,30223.035,52359.84,41559.299999999996,29433.96,21435.3,16567.245,112.095,0.0
1789861801.990661,14223.105,30221.91,52356.735,41555.07,29431.98,21432.195,16568.235,112.005,0.0
1789861801.9907084,14212.529999999999,30215.475,52346.204999999994,41547.51,29421.945,21420.989999999998,16567.11,102.91499999999999,0.0
1789861801.9946146,14210.505,30214.844999999998,52341.03,41545.034999999996,29418.795,21417.3,16564.32,99.53999999999999,0.0
1789861801.9946418,14212.89,30217.094999999998,52345.079999999994,41548.994999999995,29422.844999999998,21419.64,16561.26,99.0,0.0
1789861801.99745,14221.755,30227.985,52356.509999999995,41562.18,29436.344999999998,21431.43,16562.88,107.36999999999999,0.0
1789861801.997474,14222.925,30229.155,52357.905,41563.665,29442.555,21434.445,16563.555,108.945,0.0
1789861802.0037582,14222.789999999999,30228.66,52356.375,41557.814999999995,29441.835,21430.17,16563.015,107.685,0.0
1789861802.003775,14221.935,30225.78,52353.134999999995,41548.545,29438.055,21426.48,16565.895,103.905,0.0
1789861802.005904,14232.914999999999,30234.105,52361.549999999996,41557.275,29448.585,21435.795,16571.204999999998,115.11,0.0
1789861802.005922,14223.24,30227.579999999998,52350.119999999995,41549.354999999996,29442.78,21424.77,16558.155,108.85499999999999,0.0
1789861802.0136693,14237.234999999999,30241.71,52363.259999999995,41564.655,29460.149999999998,21439.035,16546.995,119.655,0.0
1789861802.0136826,14237.369999999999,30241.664999999997,52364.475,41561.865,29455.785,21428.594999999998,16539.075,119.61,0.0
1789861802.0143328,14232.015,30239.504999999997,52365.735,41559.705,29459.16,21432.735,16534.17,113.265,0.0
1789861802.0143616,14231.835,30243.78,52374.42,41569.424999999996,29472.344999999998,21444.885,16535.25,112.99499999999999,0.0
1789861802.0174055,14217.39,30230.235,52359.93,41557.095,29461.004999999997,21430.305,16561.53,105.21,0.0
1789861802.0174203,14215.365,30226.184999999998,52352.145,41559.525,29465.594999999998,21434.175,16580.97,107.00999999999999,0.0
1789861802.022934,14226.074999999999,30232.395,52356.735,41567.354999999996,29475.27,21444.885,16598.61,122.35499999999999,0.0
1789861802.022961,14233.095,30233.879999999997,52352.055,41560.784999999996,29469.735,21439.305,16604.55,129.105,0.0
1789861802.0274384,14236.92,30233.61,52348.229999999996,41555.115,29464.11,21429.585,16596.899999999998,123.255,0.0
1789861802.0274582,14222.025,30223.62,52344.63,41535.674999999996,29441.969999999998,21410.145,16577.864999999998,104.085,0.0
1789861802.0350096,14215.545,30216.195,52345.305,41541.03,29442.78,21404.61,16565.579999999998,98.05499999999999,0.0
1789861802.0350223,14224.41,30223.664999999997,52338.915,41533.875,29440.395,21403.485,16564.364999999998,105.435,0.0
1789861802.0350342,14223.285,30222.855,52347.42,41522.174999999996,29432.835,21408.795,16572.105,107.235,0.0
1789861802.03504,14221.305,30224.16,52357.095,41531.805,29438.73,21411.675,16567.155,101.565,0.0
1789861802.0402029,14225.625,30223.62,52352.505,41532.479999999996,29437.245,21406.005,16564.635,103.365,0.0
1789861802.0402167,14224.14,30222.225,52339.32,41523.345,29430.0,21399.704999999998,16561.845,103.67999999999999,0.0
1789861802.043251,14223.555,30222.135,52328.744999999995,41523.795,29437.245,21412.17,16562.43,105.975,0.0
1789861802.043264,14235.21,30229.469999999998,52335.405,41526.225,29452.23,21434.579999999998,16564.32,117.315,0.0
1789861802.0468493,14238.404999999999,30237.795,52345.71,41532.93,29459.879999999997,21434.76,16561.845,120.46499999999999,0.0
1789861802.0468736,14223.15,30231.449999999997,52345.35,41539.32,29454.434999999998,21424.995,16549.47,107.46,0.0
1789861802.0514524,14216.894999999999,30229.11,52366.005,41560.02,29456.46,21423.735,16551.72,105.03,0.0
1789861802.051464,14220.225,30231.045,52372.845,41563.755,29459.385,21425.445,16565.445,111.46499999999999,0.0
1789861802.053445,14222.744999999999,30232.53,52368.119999999995,41551.38,29457.36,21426.03,16574.355,112.63499999999999,0.0
1789861802.053462,14217.705,30235.32,52369.74,41549.445,29457.405,21420.045,16560.135,98.505,0.0
1789861802.058886,14222.385,30230.01,52353.27,41529.555,29444.355,21410.235,16550.73,102.55499999999999,0.0
1789861802.0588975,14227.244999999999,30236.85,52354.979999999996,41524.47,29440.754999999997,21405.96,16549.739999999998,104.75999999999999,0.0
1789861802.0613737,14225.49,30235.05,52337.43,41519.115,29443.995,21411.045,16553.61,105.88499999999999,0.0
1789861802.0613852,14232.644999999999,30242.385,52315.155,41506.83,29451.78,21423.645,16565.67,116.05499999999999,0.0
1789861802.0687172,14230.305,30242.07,52311.96,41485.275,29444.579999999998,21416.895,16563.78,115.74,0.0
1789861802.068738,14215.904999999999,30229.92,52319.43,41459.895,29433.42,21403.62,16551.63,102.55499999999999,0.0
1789861802.0710368,14210.505,30240.135,52398.18,41508.405,29431.53,21399.39,16538.895,95.39999999999999,0.0
1789861802.071054,14210.234999999999,30231.27,52359.57,41538.104999999996,29442.42,21408.255,16543.934999999998,94.95,0.0
1789861802.0742035,14219.73,30231.0,52344.72,41562.63,29466.135,21426.93,16546.635,103.185,0.0
1789861802.0742233,14220.135,30228.12,52357.905,41573.025,29461.545,21425.805,16547.085,103.63499999999999,0.0
1789861802.0841236,14208.975,30224.835,52374.735,41544.225,29439.585,21411.36,16546.635,93.50999999999999,0.0
1789861802.0841491,14213.295,30230.055,52378.784999999996,41544.945,29449.17,21418.92,16544.97,94.99499999999999,0.0
1789861802.0841813,14223.285,30243.149999999998,52374.825,41549.354999999996,29461.23,21429.63,16549.02,102.69,0.0
1789861802.0842016,14221.529999999999,30245.535,52374.24,41540.58,29457.675,21428.37,16552.035,99.765,0.0
1789861802.0924904,14231.025,30252.059999999998,52379.009999999995,41548.185,29468.204999999998,21440.16,16555.184999999998,109.755,0.0
1789861802.0925105,14219.279999999999,30235.86,52361.685,41533.424999999996,29453.219999999998,21424.005,16548.93,100.71,0.0
1789861802.09253,14217.885,30231.629999999997,52356.78,41530.994999999995,29453.579999999998,21426.48,16543.035,101.52,0.0
1789861802.0925395,14224.5,30236.355,52365.555,41538.555,29463.48,21439.934999999998,16551.765,112.455,0.0
1789861802.0941308,14220.404999999999,30235.32,52367.895,41538.645,29464.245,21441.555,16555.14,107.72999999999999,0.0
1789861802.0941489,14210.46,30229.425,52360.244999999995,41536.17,29464.155,21441.51,16552.079999999998,93.86999999999999,0.0
1789861802.0973766,14219.775,30239.145,52367.534999999996,41550.255,29476.754999999997,21450.51,16546.545,98.72999999999999,0.0
1789861802.0973954,14223.285,30244.635,52368.479999999996,41554.665,29480.445,21450.329999999998,16548.93,100.845,0.0
1789861802.1016674,14226.48,30249.36,52365.329999999994,41550.885,29479.32,21448.395,16538.175,99.72,0.0
1789861802.1016984,14227.83,30239.46,52349.939999999995,41534.145,29471.219999999998,21449.07,16522.02,101.7,0.0
1789861802.1061957,14244.57,30257.954999999998,52376.895,41560.695,29496.87,21471.93,16478.235,112.32,0.0
1789861802.1062288,14264.73,30289.364999999998,52418.924999999996,41598.585,29527.245,21491.684999999998,16361.01,113.22,0.0
1789861802.1145203,14267.205,30293.504999999997,52416.72,41582.385,29521.754999999997,21496.77,16377.705,116.36999999999999,0.0
1789861802.1145525,14253.525,30275.01,52399.935,41571.81,29506.59,21483.315,16501.41,116.1,0.0
1789861802.1145785,14217.885,30232.934999999998,52355.88,41530.905,29464.335,21445.92,16685.145,113.94,0.0
1789861802.114591,14210.46,30226.68,52346.655,41516.729999999996,29457.36,21441.825,16673.489999999998,109.935,0.0
1789861802.1174865,14222.475,30239.864999999998,52364.744999999995,41539.95,29481.57,21467.565,16611.48,109.035,0.0
1789861802.1175072,14222.835,30235.995,52362.18,41538.645,29483.82,21468.87,16602.93,106.56,0.0
1789861802.1221652,14225.805,30235.86,52358.939999999995,41525.729999999996,29474.145,21458.925,16591.86,111.50999999999999,0.0
1789861802.12219,14233.23,30239.46,52364.7,41530.409999999996,29480.219999999998,21465.719999999998,16586.055,118.035,0.0
1789861802.1284564,14232.779999999999,30237.254999999997,52357.095,41522.985,29471.355,21455.46,16580.43,116.82,0.0
1789861802.128483,14227.47,30225.149999999998,52336.89,41496.435,29450.07,21435.12,16568.055,111.10499999999999,0.0
1789861802.1299553,14231.744999999999,30231.945,52341.075,41498.505,29463.3,21454.515,16560.135,114.345,0.0
1789861802.129978,14217.435,30224.925,52342.829999999994,41510.159999999996,29468.925,21449.79,16552.845,104.13,0.0
1789861802.134183,14221.35,30235.184999999998,52365.284999999996,41537.924999999996,29475.09,21422.88,16549.47,104.985,0.0
1789861802.134203,14239.935,30241.62,52362.945,41518.395,29467.844999999998,21446.684999999998,16556.22,118.25999999999999,0.0
1789861802.1393578,14238.494999999999,30229.695,52316.235,41489.955,29466.719999999998,21446.64,16557.614999999998,115.83,0.0
1789861802.1393833,14245.38,30228.93,52307.729999999996,41495.31,29478.645,21453.93,16558.515,123.66,0.0
1789861802.1430151,14243.265,30233.475,52343.549999999996,41515.244999999995,29481.03,21451.95,16555.545,121.32,0.0
1789861802.143041,14238.675,30237.795,52392.42,41540.76,29486.745,21454.155,16554.555,116.46,0.0
1789861802.1461189,14240.07,30250.35,52422.435,41556.015,29491.92,21455.37,16552.62,113.895,0.0
1789861802.1461413,14241.6,30250.26,52397.505,41553.135,29496.105,21456.54,16551.135,113.94,0.0
1789861802.1541147,14239.26,30239.37,52381.935,41540.174999999996,29492.91,21457.35,16554.645,114.83999999999999,0.0
1789861802.1541405,14248.935,30244.004999999997,52399.259999999995,41548.455,29504.61,21468.6,16558.155,122.895,0.0
1789861802.1559553,14247.0,30245.219999999998,52392.825,41560.38,29516.175,21472.605,16559.1,117.945,0.0
1789861802.1559687,14236.56,30231.09,52376.31,41548.5,29509.965,21460.68,16558.785,110.88,0.0
1789861802.165428,14239.98,30241.395,52378.424999999996,41530.545,29496.149999999998,21459.195,16563.195,116.505,0.0
1789861802.1654449,14244.48,30244.41,52377.119999999995,41542.65,29505.51,21468.87,16565.805,126.27,0.0
1789861802.1654608,14244.119999999999,30236.94,52359.435,41531.76,29498.895,21463.29,16564.905,126.27,0.0
1789861802.1654685,14255.82,30247.335,52383.96,41536.845,29505.51,21472.515,16564.23,133.785,0.0
1789861802.1672025,14257.125,30241.8,52389.09,41531.805,29502.495,21470.85,16567.38,133.605,0.0
1789861802.1672196,14248.08,30226.184999999998,52342.56,41511.689999999995,29490.254999999997,21456.585,16560.36,120.69,0.0
1789861802.1723692,14249.88,30228.21,52349.13,41522.354999999996,29495.52,21456.719999999998,16558.065,122.22,0.0
1789861802.172386,14255.414999999999,30248.594999999998,52391.835,41545.845,29510.46,21469.77,16558.649999999998,131.085,0.0
1789861802.1738396,14260.14,30260.655,52399.259999999995,41536.125,29515.815,21478.725,16565.445,136.79999999999998,0.0
1789861802.1738544,14261.355,30263.129999999997,52374.689999999995,41520.104999999996,29507.67,21473.505,16568.055,133.65,0.0
1789861802.1782389,14264.685,30261.555,52381.17,41529.33,29513.745,21481.829999999998,16567.2,135.26999999999998,0.0
1789861802.1782577,14263.83,30258.945,52396.515,41549.67,29509.11,21477.285,16563.78,131.98499999999999,0.0
1789861802.1815531,14259.06,30266.594999999998,52442.954999999994,41570.955,29511.405,21474.09,16553.655,127.17,0.0
1789861802.1815753,14256.72,30266.01,52415.595,41560.92,29517.03,21478.41,16555.5,127.035,0.0
1789861802.1862867,14270.085,30270.69,52404.119999999995,41564.205,29525.805,21492.18,16568.595,142.10999999999999,0.0
1789861802.186318,14263.83,30261.645,52395.704999999994,41540.985,29505.555,21480.344999999998,16566.524999999998,136.935,0.0
1789861802.1935222,14271.255,30262.635,52395.704999999994,41538.96,29508.84,21487.454999999998,16569.585,144.63,0.0
1789861802.1935468,14266.26,30257.055,52385.579999999994,41535.585,29508.57,21485.61,16570.934999999998,139.45499999999998,0.0
1789861802.194903,14271.75,30266.28,52395.39,41540.354999999996,29510.504999999997,21485.745,16571.835,144.585,0.0
1789861802.1949277,14258.88,30256.649999999998,52387.875,41537.52,29507.895,21484.53,16564.23,133.335,0.0
1789861802.200193,14257.394999999999,30258.945,52391.61,41544.945,29515.545,21494.475,16560.72,132.12,0.0
1789861802.200215,14266.71,30268.35,52398.585,41547.33,29516.355,21483.809999999998,16555.545,138.105,0.0
1789861802.2009416,14274.72,30278.475,52408.619999999995,41553.45,29524.14,21494.655,16549.155,144.9,0.0
1789861802.2009668,14268.51,30270.329999999998,52404.975,41553.36,29516.895,21495.195,16549.92,142.515,0.0
1789861802.2076678,14270.13,30271.05,52402.545,41554.935,29521.844999999998,21507.704999999998,16563.015,146.25,0.0
1789861802.2076924,14260.23,30261.105,52379.28,41534.909999999996,29508.434999999998,21494.835,16573.184999999998,138.96,0.0
1789861802.2101622,14271.885,30270.6,52390.53,41536.26,29508.21,21499.245,16579.71,151.065,0.0
1789861802.210188,14268.465,30267.809999999998,52391.52,41529.51,29495.114999999998,21488.309999999998,16586.1,148.635,0.0
1789861802.2134535,14254.425,30252.285,52376.445,41524.244999999995,29490.3,21481.605,16578.135,134.28,0.0
1789861802.2134817,14257.89,30258.585,52385.445,41526.585,29498.445,21489.48,16571.88,133.335,0.0
1789861802.21843,14268.105,30266.594999999998,52396.335,41535.945,29508.84,21503.07,16573.095,141.255,0.0
1789861802.2184572,14266.215,30262.86,52381.755,41530.095,29504.07,21497.67,16570.665,137.20499999999998,0.0
1789861802.2230897,14262.39,30257.37,52377.479999999996,41529.284999999996,29501.504999999997,21497.715,16567.785,136.89,0.0
1789861802.2231212,14268.96,30260.475,52391.34,41536.575,29503.934999999998,21504.059999999998,16570.035,143.01,0.0
1789861802.2293828,14285.564999999999,30273.704999999998,52402.365,41550.21,29519.91,21519.719999999998,16582.995,159.66,0.0
1789861802.2294135,14280.21,30268.754999999997,52395.03,41560.244999999995,29527.739999999998,21519.045,16581.87,154.62,0.0
1789861802.2316923,14282.955,30268.395,52391.655,41551.335,29522.879999999997,21520.89,16584.255,157.04999999999998,0.0
1789861802.2317243,14284.8,30276.629999999997,52398.854999999996,41538.869999999995,29513.52,21525.84,16580.925,155.51999999999998,0.0
1789861802.2342339,14289.3,30275.91,52381.665,41535.9,29521.26,21537.945,16573.41,157.095,0.0
1789861802.2342556,14291.369999999999,30273.704999999998,52362.27,41512.049999999996,29514.78,21531.51,16569.809999999998,158.085,0.0
1789861802.2443464,14277.644999999999,30258.675,52357.409999999996,41514.885,29516.309999999998,21521.07,16560.63,150.12,0.0
1789861802.2443795,14277.51,30259.395,52383.104999999996,41541.615,29507.039999999997,21511.079999999998,16566.75,154.07999999999998,0.0
1789861802.2444112,14284.935,30271.364999999998,52408.215,41578.335,29533.86,21536.415,16584.434999999998,162.855,0.0
1789861802.2444248,14292.0,30268.035,52388.009999999995,41550.659999999996,29528.594999999998,21543.21,16608.96,172.035,0.0
1789861802.2455146,14287.68,30273.75,52408.619999999995,41563.305,29540.879999999997,21550.68,16600.59,162.35999999999999,0.0
1789861802.2455413,14282.82,30277.485,52429.454999999994,41564.744999999995,29533.184999999998,21538.17,16586.235,147.915,0.0
1789861802.2509427,14305.41,30311.684999999998,52449.39,41574.284999999996,29543.805,21541.815,16578.27,153.315,0.0
1789861802.2509658,14290.289999999999,30272.85,52406.954999999994,41555.835,29531.745,21527.37,16585.335,156.915,0.0
1789861802.253524,14292.09,30261.51,52379.729999999996,41511.33,29492.19,21508.649999999998,16593.704999999998,168.66,0.0
1789861802.253541,14288.13,30267.495,52397.595,41545.17,29517.614999999998,21525.704999999998,16580.835,158.57999999999998,0.0
1789861802.260017,14295.285,30273.885,52414.155,41556.15,29530.844999999998,21537.36,16586.28,168.345,0.0
1789861802.2600489,14283.494999999999,30261.645,52417.71,41541.795,29522.52,21529.395,16588.125,166.85999999999999,0.0
1789861802.2619915,14268.375,30248.28,52402.905,41521.77,29522.07,21534.12,16592.22,158.13,0.0
1789861802.2620163,14265.585,30250.71,52409.07,41548.455,29548.934999999998,21557.61,16591.635,159.255,0.0
1789861802.265541,14267.744999999999,30252.87,52420.32,41565.645,29547.855,21553.829999999998,16591.635,158.535,0.0
1789861802.2655733,14272.38,30255.254999999997,52422.525,41547.375,29530.98,21541.77,16586.73,152.595,0.0
1789861802.2736864,14289.029999999999,30268.53,52422.659999999996,41540.939999999995,29527.199999999997,21532.454999999998,16582.815,157.04999999999998,0.0
1789861802.2737212,14304.779999999999,30286.664999999997,52416.45,41528.43,29514.78,21504.96,16576.559999999998,154.98,0.0
1789861802.2753274,14317.335,30297.645,52416.945,41529.195,29517.39,21501.989999999998,16574.76,160.965,0.0
1789861802.275359,14315.805,30294.855,52421.67,41538.78,29524.184999999998,21512.7,16573.95,167.535,0.0
1789861802.277459,14308.019999999999,30283.695,52406.685,41518.845,29511.18,21510.855,16585.29,171.63,0.0
1789861802.2774944,14301.269999999999,30275.37,52400.88,41513.265,29506.77,21527.82,16578.135,166.275,0.0
1789861802.284699,14306.76,30280.094999999998,52404.21,41523.57,29517.84,21531.87,16575.39,172.53,0.0
1789861802.2847257,14305.32,30278.43,52397.46,41514.255,29505.824999999997,21515.895,16578.18,170.415,0.0
1789861802.2856417,14305.275,30277.62,52407.99,41530.68,29513.43,21523.05,16577.55,170.28,0.0
1789861802.2856727,14293.845,30266.414999999997,52393.409999999996,41516.505,29502.315,21509.594999999998,16569.855,159.57,0.0
1789861802.2940924,14303.025,30275.28,52398.945,41515.244999999995,29507.625,21518.505,16575.48,168.525,0.0
1789861802.2941086,14298.345,30272.67,52396.38,41516.01,29511.36,21522.465,16579.71,167.535,0.0
1789861802.308416,14289.164999999999,30264.704999999998,52388.954999999994,41506.695,29502.18,21513.78,16577.37,158.94,0.0
